#Collected Data-76
#Intensity_unit=counts
#Attenuator_coefficient=1.000000
40.0000 68.0208
40.0500 43.0220
40.1000 41.7101
40.1500 39.6646
40.2000 35.1091
40.2500 41.5841
40.3000 36.6989
40.3500 47.0925
40.4000 27.4869
40.4500 36.9098
40.5000 42.2799
40.5500 40.3545
40.6000 35.6223
40.6500 27.8231
40.7000 50.9339
40.7500 43.4492
40.8000 39.2304
40.8500 24.3402
40.9000 30.3735
40.9500 40.1512
41.0000 42.5851
41.0500 44.4192
41.1000 40.2865
41.1500 41.7286
41.2000 37.8334
41.2500 43.0110
41.3000 37.8457
41.3500 43.7595
41.4000 36.2987
41.4500 36.8999
41.5000 44.3614
41.5500 38.0170
41.6000 47.3891
41.6500 35.7027
41.7000 49.7518
41.7500 37.9247
41.8000 41.1634
41.8500 46.0419
41.9000 29.2451
41.9500 29.4984
42.0000 38.7398
42.0500 36.5924
42.1000 42.7823
42.1500 28.2666
42.2000 46.1337
42.2500 39.2342
42.3000 39.8386
42.3500 34.8965
42.4000 46.6588
42.4500 42.4173
42.5000 32.4772
42.5500 45.3567
42.6000 36.3570
42.6500 37.7779
42.7000 35.8883
42.7500 34.6389
42.8000 38.0594
42.8500 29.2301
42.9000 32.3460
42.9500 24.7852
43.0000 43.4602
43.0500 44.6314
43.1000 42.2699
43.1500 34.5479
43.2000 43.1223
43.2500 36.2926
43.3000 43.7200
43.3500 27.9597
43.4000 33.8075
43.4500 31.9826
43.5000 53.8055
43.5500 34.3155
43.6000 32.2350
43.6500 40.4936
43.7000 49.7381
43.7500 31.4237
43.8000 30.3101
43.8500 48.3429
43.9000 40.8862
43.9500 44.3529
44.0000 42.6359
44.0500 45.3009
44.1000 53.0931
44.1500 47.0320
44.2000 59.5069
44.2500 70.3447
44.3000 109.1249
44.3500 143.6819
44.4000 288.5876
44.4500 761.0948
44.5000 1756.1493
44.5500 2372.2151
44.6000 2075.1394
44.6500 1035.8683
44.7000 360.7930
44.7500 161.4914
44.8000 101.6033
44.8500 66.5168
44.9000 55.4259
44.9500 52.7604
45.0000 36.6141
45.0500 35.5875
45.1000 44.0741
45.1500 36.2015
45.2000 34.3461
45.2500 41.1303
45.3000 25.0517
45.3500 43.0105
45.4000 31.4649
45.4500 34.4539
45.5000 35.2458
45.5500 35.6419
45.6000 31.1938
45.6500 36.2999
45.7000 33.8980
45.7500 27.6597
45.8000 40.5750
45.8500 40.7912
45.9000 29.8334
45.9500 37.4194
46.0000 35.0957
46.0500 35.1034
46.1000 29.5632
46.1500 35.2531
46.2000 37.9199
46.2500 45.0258
46.3000 30.7215
46.3500 37.8957
46.4000 34.1064
46.4500 29.1228
46.5000 35.6161
46.5500 38.8100
46.6000 24.5523
46.6500 47.6721
46.7000 31.3190
46.7500 25.8102
46.8000 39.5204
46.8500 33.6006
46.9000 33.1534
46.9500 34.2632
47.0000 42.0182
47.0500 26.0042
47.1000 35.8010
47.1500 27.1359
47.2000 30.4628
47.2500 39.1091
47.3000 36.3079
47.3500 34.0623
47.4000 35.4717
47.4500 41.1636
47.5000 34.5871
47.5500 41.3384
47.6000 34.0535
47.6500 27.9719
47.7000 33.6444
47.7500 35.7131
47.8000 27.8181
47.8500 44.5478
47.9000 30.0812
47.9500 29.3400
48.0000 33.2990
48.0500 37.3241
48.1000 33.9703
48.1500 34.5802
48.2000 38.4470
48.2500 34.5700
48.3000 30.4122
48.3500 33.9642
48.4000 32.0967
48.4500 33.8725
48.5000 41.3988
48.5500 34.3628
48.6000 29.2008
48.6500 31.1730
48.7000 41.8059
48.7500 37.4200
48.8000 43.6414
48.8500 36.0924
48.9000 34.4980
48.9500 47.3531
49.0000 33.2893
49.0500 34.8545
49.1000 43.8871
49.1500 35.0339
49.2000 30.1200
49.2500 34.8816
49.3000 37.9140
49.3500 26.7368
49.4000 29.4227
49.4500 41.1172
49.5000 49.7087
49.5500 35.5263
49.6000 35.1725
49.6500 33.9465
49.7000 30.8383
49.7500 27.7161
49.8000 41.9560
49.8500 37.8850
49.9000 24.1575
49.9500 41.3965
50.0000 38.2027
50.0500 29.2904
50.1000 28.9281
50.1500 30.0124
50.2000 31.5684
50.2500 26.6580
50.3000 31.3888
50.3500 31.0633
50.4000 20.6882
50.4500 25.6576
50.5000 40.6717
50.5500 42.2560
50.6000 40.6572
50.6500 48.5891
50.7000 29.8714
50.7500 32.3331
50.8000 23.9727
50.8500 36.8536
50.9000 31.6766
50.9500 23.5204
51.0000 34.4352
51.0500 39.3554
51.1000 35.3400
51.1500 46.9368
51.2000 41.1622
51.2500 31.8614
51.3000 31.0169
51.3500 31.8443
51.4000 27.3681
51.4500 35.6863
51.5000 36.0020
51.5500 39.1589
51.6000 30.9116
51.6500 40.8729
51.7000 38.8983
51.7500 34.2548
51.8000 31.8555
51.8500 30.0010
51.9000 32.6356
51.9500 25.7647
52.0000 35.0881
52.0500 28.1296
52.1000 32.4223
52.1500 22.5921
52.2000 23.1968
52.2500 33.0785
52.3000 37.4492
52.3500 42.4864
52.4000 24.8389
52.4500 31.0927
52.5000 27.3424
52.5500 34.3818
52.6000 44.5820
52.6500 37.1902
52.7000 35.2087
52.7500 25.0459
52.8000 41.5583
52.8500 33.9456
52.9000 34.4759
52.9500 38.4845
53.0000 35.5476
53.0500 45.7278
53.1000 23.4079
53.1500 22.7179
53.2000 30.0071
53.2500 34.5766
53.3000 37.4331
53.3500 36.0856
53.4000 33.4741
53.4500 36.0160
53.5000 30.8003
53.5500 27.4202
53.6000 25.0506
53.6500 24.1101
53.7000 29.9367
53.7500 28.6048
53.8000 31.1362
53.8500 30.7272
53.9000 35.9743
53.9500 48.8703
54.0000 38.2361
54.0500 30.7506
54.1000 31.9873
54.1500 22.7303
54.2000 26.8337
54.2500 21.4362
54.3000 33.3399
54.3500 22.6720
54.4000 36.1537
54.4500 45.1612
54.5000 28.6566
54.5500 37.6102
54.6000 40.4405
54.6500 46.5109
54.7000 25.8568
54.7500 36.5277
54.8000 21.1327
54.8500 28.8497
54.9000 29.2203
54.9500 33.2133
55.0000 35.1103
55.0500 29.0209
55.1000 29.5244
55.1500 26.7195
55.2000 24.2082
55.2500 22.5811
55.3000 31.8594
55.3500 30.4078
55.4000 33.1711
55.4500 33.4853
55.5000 30.0421
55.5500 31.4006
55.6000 34.4929
55.6500 36.1872
55.7000 26.0484
55.7500 29.4855
55.8000 30.7505
55.8500 31.2990
55.9000 29.9475
55.9500 25.4566
56.0000 33.2917
56.0500 34.6597
56.1000 27.0438
56.1500 32.1318
56.2000 24.0226
56.2500 27.3255
56.3000 37.2101
56.3500 34.7631
56.4000 35.3161
56.4500 28.5042
56.5000 40.9934
56.5500 29.5171
56.6000 31.0002
56.6500 25.8476
56.7000 32.3697
56.7500 28.5804
56.8000 35.5668
56.8500 29.0924
56.9000 29.3179
56.9500 28.8729
57.0000 32.9564
57.0500 30.1238
57.1000 33.6470
57.1500 36.9718
57.2000 29.5382
57.2500 33.4796
57.3000 29.0423
57.3500 28.6509
57.4000 31.2262
57.4500 27.6422
57.5000 30.7765
57.5500 41.3539
57.6000 33.7795
57.6500 41.9836
57.7000 37.5471
57.7500 39.3070
57.8000 45.2917
57.8500 28.5702
57.9000 33.5438
57.9500 34.9300
58.0000 28.6951
58.0500 34.7832
58.1000 33.5593
58.1500 26.8777
58.2000 30.4267
58.2500 29.5072
58.3000 39.3313
58.3500 33.5197
58.4000 26.5373
58.4500 27.4405
58.5000 28.3572
58.5500 28.5609
58.6000 26.6565
58.6500 27.1440
58.7000 36.5375
58.7500 32.7074
58.8000 31.2403
58.8500 34.9743
58.9000 22.2642
58.9500 34.6312
59.0000 31.5652
59.0500 30.7162
59.1000 33.3437
59.1500 37.8986
59.2000 36.9314
59.2500 26.7992
59.3000 31.9393
59.3500 36.2453
59.4000 33.2226
59.4500 19.5527
59.5000 29.1826
59.5500 33.9239
59.6000 35.4950
59.6500 22.8206
59.7000 32.8790
59.7500 23.4315
59.8000 32.5505
59.8500 36.2233
59.9000 31.1004
59.9500 26.1435
60.0000 33.1136
60.0500 35.6009
60.1000 35.9498
60.1500 26.9062
60.2000 26.8690
60.2500 45.0942
60.3000 31.6419
60.3500 35.8590
60.4000 33.8840
60.4500 23.0814
60.5000 28.6855
60.5500 29.9356
60.6000 42.6829
60.6500 32.8137
60.7000 38.4234
60.7500 26.2086
60.8000 25.4092
60.8500 29.2143
60.9000 37.3292
60.9500 39.4578
61.0000 36.5952
61.0500 27.0881
61.1000 45.8540
61.1500 28.9922
61.2000 40.5334
61.2500 24.7121
61.3000 29.0450
61.3500 26.0034
61.4000 29.9347
61.4500 25.3968
61.5000 25.8916
61.5500 32.9958
61.6000 36.5941
61.6500 36.0594
61.7000 40.1949
61.7500 33.3351
61.8000 34.7312
61.8500 23.9226
61.9000 29.8992
61.9500 29.7948
62.0000 34.1713
62.0500 25.5000
62.1000 19.4375
62.1500 31.4394
62.2000 24.4161
62.2500 34.4486
62.3000 35.3995
62.3500 28.6813
62.4000 28.8607
62.4500 44.3183
62.5000 28.9450
62.5500 30.9747
62.6000 32.4342
62.6500 34.4303
62.7000 39.2597
62.7500 25.2220
62.8000 36.0373
62.8500 25.0687
62.9000 28.8499
62.9500 31.2197
63.0000 34.3456
63.0500 37.0751
63.1000 31.7992
63.1500 34.4940
63.2000 42.5859
63.2500 34.4474
63.3000 22.2672
63.3500 33.1484
63.4000 33.7352
63.4500 26.2543
63.5000 25.0424
63.5500 23.3180
63.6000 36.3365
63.6500 20.1843
63.7000 23.7059
63.7500 27.0165
63.8000 23.5171
63.8500 29.9844
63.9000 35.6293
63.9500 29.1603
64.0000 31.8221
64.0500 37.5831
64.1000 25.7474
64.1500 31.7381
64.2000 30.9921
64.2500 24.2099
64.3000 34.5588
64.3500 37.5952
64.4000 34.6859
64.4500 34.9015
64.5000 46.5287
64.5500 46.7010
64.6000 46.2159
64.6500 57.4278
64.7000 89.4617
64.7500 121.9654
64.8000 108.8971
64.8500 126.2547
64.9000 101.2051
64.9500 67.6018
65.0000 50.3352
65.0500 43.8455
65.1000 27.3195
65.1500 27.6838
65.2000 28.9106
65.2500 32.4950
65.3000 28.4156
65.3500 30.1531
65.4000 22.6743
65.4500 31.4626
65.5000 25.2755
65.5500 37.1353
65.6000 30.6693
65.6500 31.2863
65.7000 39.7454
65.7500 39.2920
65.8000 24.6423
65.8500 28.1517
65.9000 29.6804
65.9500 18.3261
66.0000 41.6344
66.0500 33.5759
66.1000 29.2967
66.1500 25.5939
66.2000 28.0705
66.2500 36.2484
66.3000 26.5901
66.3500 32.8979
66.4000 33.1002
66.4500 25.5060
66.5000 23.4341
66.5500 27.0208
66.6000 36.2237
66.6500 35.8344
66.7000 21.2017
66.7500 42.7971
66.8000 26.9783
66.8500 34.7158
66.9000 28.7672
66.9500 38.5791
67.0000 42.6010
67.0500 29.5170
67.1000 24.3803
67.1500 32.4713
67.2000 24.7685
67.2500 23.2455
67.3000 28.8528
67.3500 18.4723
67.4000 31.1873
67.4500 25.8151
67.5000 27.4780
67.5500 22.0068
67.6000 23.6953
67.6500 24.7364
67.7000 22.7318
67.7500 19.4343
67.8000 30.3010
67.8500 21.5683
67.9000 27.1312
67.9500 30.6122
68.0000 39.1039
68.0500 25.9026
68.1000 37.6210
68.1500 28.0130
68.2000 22.3283
68.2500 35.3065
68.3000 34.4363
68.3500 35.3027
68.4000 33.5395
68.4500 27.8293
68.5000 29.0899
68.5500 25.9217
68.6000 21.3981
68.6500 25.9542
68.7000 41.9473
68.7500 28.1527
68.8000 27.4257
68.8500 38.3031
68.9000 28.1128
68.9500 37.1087
69.0000 28.0378
69.0500 33.3869
69.1000 24.8386
69.1500 28.5270
69.2000 26.1075
69.2500 25.8175
69.3000 38.4508
69.3500 29.4979
69.4000 23.6040
69.4500 40.3992
69.5000 26.0758
69.5500 24.5878
69.6000 38.2508
69.6500 25.7636
69.7000 26.1424
69.7500 37.9115
69.8000 34.7385
69.8500 35.8445
69.9000 23.4983
69.9500 29.8806
70.0000 25.6172
70.0500 33.0711
70.1000 37.1685
70.1500 46.1370
70.2000 26.2807
70.2500 28.7721
70.3000 25.9322
70.3500 28.7335
70.4000 28.1532
70.4500 29.3488
70.5000 26.9959
70.5500 25.4556
70.6000 29.4745
70.6500 35.5396
70.7000 34.0227
70.7500 37.4408
70.8000 33.3006
70.8500 20.9299
70.9000 27.6996
70.9500 36.9480
71.0000 31.6286
71.0500 38.3240
71.1000 23.9945
71.1500 29.9001
71.2000 32.5913
71.2500 35.5805
71.3000 22.3248
71.3500 30.3392
71.4000 28.4737
71.4500 33.2324
71.5000 33.5609
71.5500 29.1461
71.6000 31.3535
71.6500 31.2313
71.7000 27.8607
71.7500 36.8365
71.8000 30.3207
71.8500 33.6541
71.9000 22.6165
71.9500 20.1258
72.0000 19.1532
72.0500 28.5802
72.1000 33.7745
72.1500 38.5014
72.2000 25.6340
72.2500 35.7175
72.3000 27.4095
72.3500 37.8910
72.4000 25.6338
72.4500 24.4010
72.5000 37.3735
72.5500 33.3957
72.6000 37.8450
72.6500 35.0777
72.7000 31.3217
72.7500 30.7471
72.8000 27.4076
72.8500 32.3003
72.9000 32.2938
72.9500 30.8788
73.0000 38.0019
73.0500 33.5812
73.1000 24.1136
73.1500 28.0816
73.2000 26.6695
73.2500 34.0640
73.3000 36.3103
73.3500 27.2678
73.4000 32.8813
73.4500 32.4695
73.5000 29.6620
73.5500 41.0649
73.6000 34.5579
73.6500 22.2756
73.7000 35.9309
73.7500 30.7044
73.8000 36.8954
73.8500 31.1664
73.9000 35.7633
73.9500 36.1641
74.0000 33.6660
74.0500 30.0678
74.1000 33.9506
74.1500 20.5699
74.2000 33.5307
74.2500 28.9152
74.3000 16.4012
74.3500 31.8132
74.4000 37.6704
74.4500 40.2551
74.5000 35.7865
74.5500 31.1184
74.6000 17.4375
74.6500 34.5474
74.7000 31.7443
74.7500 25.2673
74.8000 30.6959
74.8500 31.5495
74.9000 26.9240
74.9500 32.1101
75.0000 30.0355
75.0500 26.9626
75.1000 35.3777
75.1500 29.2063
75.2000 41.3970
75.2500 25.3892
75.3000 23.5400
75.3500 30.4878
75.4000 31.1752
75.4500 35.7413
75.5000 27.8531
75.5500 27.4469
75.6000 43.2324
75.6500 33.4224
75.7000 26.6361
75.7500 33.3361
75.8000 28.1485
75.8500 28.7219
75.9000 22.3648
75.9500 39.5761
76.0000 21.7197
76.0500 25.3021
76.1000 33.2303
76.1500 26.7566
76.2000 34.5753
76.2500 40.0596
76.3000 34.1341
76.3500 18.8197
76.4000 33.3946
76.4500 41.2581
76.5000 22.6019
76.5500 33.1437
76.6000 25.2558
76.6500 32.1938
76.7000 21.3100
76.7500 27.8440
76.8000 33.6935
76.8500 36.1790
76.9000 36.7505
76.9500 24.8600
77.0000 31.1695
77.0500 25.5772
77.1000 20.6827
77.1500 22.2661
77.2000 31.3404
77.2500 28.6332
77.3000 21.4943
77.3500 46.8524
77.4000 33.4581
77.4500 34.2056
77.5000 33.4822
77.5500 36.0645
77.6000 35.0239
77.6500 45.5747
77.7000 23.4269
77.7500 28.5908
77.8000 36.7531
77.8500 26.7372
77.9000 28.3522
77.9500 31.6658
78.0000 26.4302
78.0500 42.1800
78.1000 27.0369
78.1500 38.2802
78.2000 28.1296
78.2500 23.1879
78.3000 26.2248
78.3500 29.4546
78.4000 39.9711
78.4500 29.3601
78.5000 30.7856
78.5500 25.2351
78.6000 25.5759
78.6500 29.3680
78.7000 29.7360
78.7500 28.4683
78.8000 32.9685
78.8500 30.9676
78.9000 27.5038
78.9500 30.7866
79.0000 26.7597
79.0500 33.9861
79.1000 23.6997
79.1500 26.1149
79.2000 32.4676
79.2500 23.8700
79.3000 32.0626
79.3500 28.0835
79.4000 26.6181
79.4500 23.6584
79.5000 31.2360
79.5500 31.5663
79.6000 32.8883
79.6500 32.8595
79.7000 20.4599
79.7500 34.0747
79.8000 29.3004
79.8500 30.6059
79.9000 30.2464
79.9500 38.8479
80.0000 24.4833
80.0500 37.6131
80.1000 34.5092
80.1500 39.9089
80.2000 27.3054
80.2500 29.9066
80.3000 37.4105
80.3500 27.7245
80.4000 30.1249
80.4500 29.0438
80.5000 40.0005
80.5500 32.8316
80.6000 33.2748
80.6500 28.5462
80.7000 28.1935
80.7500 27.4579
80.8000 31.3489
80.8500 30.7651
80.9000 37.3285
80.9500 35.2856
81.0000 30.1020
81.0500 31.3581
81.1000 24.3502
81.1500 30.1511
81.2000 26.8724
81.2500 36.1571
81.3000 30.5844
81.3500 42.6452
81.4000 31.9754
81.4500 33.1289
81.5000 40.1389
81.5500 29.3463
81.6000 37.7413
81.6500 45.5835
81.7000 33.1397
81.7500 46.3967
81.8000 48.1673
81.8500 50.7599
81.9000 83.1622
81.9500 125.2992
82.0000 174.8810
82.0500 215.7162
82.1000 271.9786
82.1500 221.5100
82.2000 148.2887
82.2500 100.0898
82.3000 56.0573
82.3500 44.5982
82.4000 49.8060
82.4500 36.6705
82.5000 37.0746
82.5500 35.9470
82.6000 27.6133
82.6500 37.8101
82.7000 39.3798
82.7500 23.4988
82.8000 28.4022
82.8500 31.1040
82.9000 32.1310
82.9500 37.2807
83.0000 31.9551
83.0500 20.7952
83.1000 32.9002
83.1500 30.6198
83.2000 27.9478
83.2500 36.6564
83.3000 30.5664
83.3500 30.3737
83.4000 26.4110
83.4500 27.4826
83.5000 25.1645
83.5500 33.5505
83.6000 27.2088
83.6500 31.4133
83.7000 32.4896
83.7500 34.9175
83.8000 39.1483
83.8500 31.8462
83.9000 35.7968
83.9500 29.5692
84.0000 32.1241
84.0500 29.8782
84.1000 26.1481
84.1500 27.6452
84.2000 32.1365
84.2500 28.6466
84.3000 31.0774
84.3500 37.1776
84.4000 25.6547
84.4500 38.7759
84.5000 34.9337
84.5500 28.4574
84.6000 33.1556
84.6500 28.5196
84.7000 29.1959
84.7500 28.0952
84.8000 40.0415
84.8500 33.0224
84.9000 39.4671
84.9500 35.3094
85.0000 29.8954
85.0500 25.0149
85.1000 27.4630
85.1500 24.9646
85.2000 26.4268
85.2500 36.4911
85.3000 25.6320
85.3500 28.5632
85.4000 21.1123
85.4500 29.2304
85.5000 35.5805
85.5500 38.6837
85.6000 26.4417
85.6500 22.3246
85.7000 27.9164
85.7500 32.3997
85.8000 29.5256
85.8500 32.5237
85.9000 34.1129
85.9500 31.2252
86.0000 38.3318
86.0500 24.3403
86.1000 27.2814
86.1500 23.4835
86.2000 27.7011
86.2500 34.5688
86.3000 29.7617
86.3500 24.4351
86.4000 37.9549
86.4500 21.7924
86.5000 31.5314
86.5500 32.0720
86.6000 29.7208
86.6500 30.4980
86.7000 31.9053
86.7500 31.8364
86.8000 26.7084
86.8500 33.3400
86.9000 31.7343
86.9500 20.3262
87.0000 20.5208
87.0500 35.0878
87.1000 23.3948
87.1500 23.5991
87.2000 25.7305
87.2500 31.1972
87.3000 41.2045
87.3500 35.2177
87.4000 25.7690
87.4500 29.4767
87.5000 21.2067
87.5500 26.6285
87.6000 28.0873
87.6500 25.4236
87.7000 24.4506
87.7500 31.7546
87.8000 29.1806
87.8500 34.6407
87.9000 34.0577
87.9500 27.8600
88.0000 22.2866
88.0500 28.1164
88.1000 33.5251
88.1500 28.5504
88.2000 32.3103
88.2500 34.9006
88.3000 34.7483
88.3500 21.1358
88.4000 30.0940
88.4500 27.6679
88.5000 33.3469
88.5500 25.5465
88.6000 28.7594
88.6500 31.5477
88.7000 39.1900
88.7500 32.4190
88.8000 26.0374
88.8500 23.2517
88.9000 26.1605
88.9500 28.2323
89.0000 26.6247
89.0500 35.5399
89.1000 27.4490
89.1500 25.6043
89.2000 29.9482
89.2500 19.9193
89.3000 22.4267
89.3500 26.5278
89.4000 37.6760
89.4500 28.5165
89.5000 21.9911
89.5500 29.0743
89.6000 34.8406
89.6500 34.7015
89.7000 25.2336
89.7500 40.8860
89.8000 21.9883
89.8500 28.8807
89.9000 32.3646
89.9500 34.1062
90.0000 38.5536
90.0500 38.4903
90.1000 33.9067
90.1500 32.4151
90.2000 37.3897
90.2500 39.0633
90.3000 22.1764
90.3500 34.2413
90.4000 34.6128
90.4500 29.4074
90.5000 30.3491
90.5500 37.9271
90.6000 35.6213
90.6500 24.2779
90.7000 35.3967
90.7500 33.7977
90.8000 34.4063
90.8500 32.8312
90.9000 34.4637
90.9500 29.9511
91.0000 31.8017
91.0500 30.2656
91.1000 24.1019
91.1500 33.5059
91.2000 36.2514
91.2500 33.2650
91.3000 22.7324
91.3500 27.8273
91.4000 30.9028
91.4500 36.4236
91.5000 38.3949
91.5500 38.6831
91.6000 30.0924
91.6500 32.8498
91.7000 28.5944
91.7500 28.0259
91.8000 18.9242
91.8500 19.8178
91.9000 17.7011
91.9500 17.3050
92.0000 27.0012
92.0500 23.8404
92.1000 38.3356
92.1500 43.8646
92.2000 25.6969
92.2500 41.2212
92.3000 35.0428
92.3500 23.5269
92.4000 31.0268
92.4500 38.3104
92.5000 26.0885
92.5500 29.0230
92.6000 29.8076
92.6500 23.9794
92.7000 21.7504
92.7500 37.7212
92.8000 36.3056
92.8500 20.0042
92.9000 28.7899
92.9500 27.9256
93.0000 36.4556
93.0500 34.1974
93.1000 28.7890
93.1500 30.0635
93.2000 30.6707
93.2500 29.0352
93.3000 31.7988
93.3500 24.4570
93.4000 25.2951
93.4500 30.4507
93.5000 25.9489
93.5500 39.1588
93.6000 27.4994
93.6500 32.1995
93.7000 29.3449
93.7500 30.8878
93.8000 28.7282
93.8500 34.6479
93.9000 35.1353
93.9500 32.6645
94.0000 24.0736
94.0500 29.9402
94.1000 29.5944
94.1500 28.6011
94.2000 35.0389
94.2500 40.0272
94.3000 28.1282
94.3500 32.7862
94.4000 38.0356
94.4500 26.2976
94.5000 32.1488
94.5500 30.2878
94.6000 21.7472
94.6500 39.6534
94.7000 24.2962
94.7500 27.9641
94.8000 32.7683
94.8500 28.8008
94.9000 24.7876
94.9500 25.0852
95.0000 30.0546
95.0500 26.8373
95.1000 40.6923
95.1500 33.1635
95.2000 33.3828
95.2500 17.0098
95.3000 29.6226
95.3500 30.6188
95.4000 29.9599
95.4500 28.4856
95.5000 29.6365
95.5500 41.5123
95.6000 25.7040
95.6500 25.1994
95.7000 30.1777
95.7500 34.2036
95.8000 28.6802
95.8500 33.2537
95.9000 35.6850
95.9500 16.9704
96.0000 34.6504
96.0500 27.4367
96.1000 35.1221
96.1500 26.2456
96.2000 33.0167
96.2500 23.2371
96.3000 20.2032
96.3500 24.3410
96.4000 25.8281
96.4500 35.0396
96.5000 22.3818
96.5500 37.8678
96.6000 25.1143
96.6500 26.6213
96.7000 36.3683
96.7500 27.2544
96.8000 28.4954
96.8500 33.2108
96.9000 29.0872
96.9500 35.7379
97.0000 31.6913
97.0500 26.0132
97.1000 34.6540
97.1500 34.4012
97.2000 31.0366
97.2500 32.7524
97.3000 20.8239
97.3500 23.8405
97.4000 31.8046
97.4500 25.4901
97.5000 34.3698
97.5500 34.8023
97.6000 30.1676
97.6500 35.3526
97.7000 33.0668
97.7500 22.5408
97.8000 26.2021
97.8500 33.8450
97.9000 37.0649
97.9500 26.9659
98.0000 22.6375
98.0500 29.7752
98.1000 33.3965
98.1500 27.6867
98.2000 26.6656
98.2500 30.9640
98.3000 47.2453
98.3500 38.8830
98.4000 59.3817
98.4500 74.5983
98.5000 87.5816
98.5500 141.5673
98.6000 157.2566
98.6500 192.0205
98.7000 153.6482
98.7500 121.0397
98.8000 82.7158
98.8500 64.8743
98.9000 33.5223
98.9500 46.0812
99.0000 46.8706
99.0500 37.4430
99.1000 37.3940
99.1500 21.6699
99.2000 28.0929
99.2500 28.0800
99.3000 31.7107
99.3500 28.7284
99.4000 35.4219
99.4500 30.6315
99.5000 44.5143
99.5500 29.6228
99.6000 28.2851
99.6500 25.5414
99.7000 23.4988
99.7500 25.5383
99.8000 27.8965
99.8500 28.2898
99.9000 34.8788
99.9500 29.3057
100.0000 30.1638
100.0500 32.7850
100.1000 35.6881
100.1500 22.8819
100.2000 32.9993
100.2500 25.1484
100.3000 27.6488
100.3500 34.4383
100.4000 29.1531
100.4500 31.7910
100.5000 25.1891
100.5500 39.1596
100.6000 42.4527
100.6500 33.2741
100.7000 30.1551
100.7500 23.5378
100.8000 30.0371
100.8500 35.4527
100.9000 26.4521
100.9500 20.5710
101.0000 25.6341
101.0500 27.1026
101.1000 29.5687
101.1500 31.4512
101.2000 23.9305
101.2500 34.0707
101.3000 23.7954
101.3500 32.1056
101.4000 21.0319
101.4500 33.5992
101.5000 27.3694
101.5500 30.7045
101.6000 22.1254
101.6500 24.0023
101.7000 35.5511
101.7500 34.2363
101.8000 30.2619
101.8500 32.9973
101.9000 29.9430
101.9500 24.3725
102.0000 36.5715
102.0500 44.7620
102.1000 40.6491
102.1500 29.9779
102.2000 19.9197
102.2500 27.4950
102.3000 32.6808
102.3500 40.0148
102.4000 28.2318
102.4500 27.2302
102.5000 27.6582
102.5500 38.0219
102.6000 36.3629
102.6500 27.5466
102.7000 29.4815
102.7500 23.4059
102.8000 38.3898
102.8500 33.9610
102.9000 39.2746
102.9500 20.8284
103.0000 21.3905
103.0500 26.8145
103.1000 36.2562
103.1500 34.8835
103.2000 25.3424
103.2500 31.6371
103.3000 23.6497
103.3500 20.2244
103.4000 28.5259
103.4500 28.8094
103.5000 32.3785
103.5500 25.4612
103.6000 21.1472
103.6500 42.0970
103.7000 31.1031
103.7500 27.8906
103.8000 29.7189
103.8500 26.6022
103.9000 18.4310
103.9500 30.0428
104.0000 18.6643
104.0500 30.6018
104.1000 32.7267
104.1500 36.7654
104.2000 26.3924
104.2500 26.4832
104.3000 34.2189
104.3500 34.2707
104.4000 38.2399
104.4500 32.9682
104.5000 21.9991
104.5500 27.9942
104.6000 29.7390
104.6500 32.1531
104.7000 32.9556
104.7500 33.9124
104.8000 34.5262
104.8500 30.7314
104.9000 28.0489
104.9500 29.4300
105.0000 26.7901
105.0500 38.4960
105.1000 24.4047
105.1500 25.2981
105.2000 33.6989
105.2500 27.7067
105.3000 38.7979
105.3500 26.6746
105.4000 25.8430
105.4500 31.8788
105.5000 32.1971
105.5500 35.9619
105.6000 23.9617
105.6500 31.6801
105.7000 29.5484
105.7500 30.8941
105.8000 34.0041
105.8500 39.3621
105.9000 30.9005
105.9500 21.6047
106.0000 29.3780
106.0500 34.7641
106.1000 35.0025
106.1500 29.2333
106.2000 31.1139
106.2500 29.1778
106.3000 32.2919
106.3500 35.2553
106.4000 29.5388
106.4500 30.4912
106.5000 24.4430
106.5500 27.4432
106.6000 42.2380
106.6500 28.2765
106.7000 25.2247
106.7500 20.2904
106.8000 31.9859
106.8500 33.8516
106.9000 28.8223
106.9500 33.3992
107.0000 28.1334
107.0500 27.5253
107.1000 38.8169
107.1500 27.8734
107.2000 22.9563
107.2500 30.7957
107.3000 24.7814
107.3500 25.1907
107.4000 33.0056
107.4500 29.3384
107.5000 35.7201
107.5500 21.3499
107.6000 32.7775
107.6500 30.1971
107.7000 25.7693
107.7500 18.6417
107.8000 24.8251
107.8500 28.7958
107.9000 29.3528
107.9500 22.6744
108.0000 34.5901
108.0500 28.7725
108.1000 28.5649
108.1500 36.1448
108.2000 24.3982
108.2500 24.4595
108.3000 30.3566
108.3500 27.9847
108.4000 32.8942
108.4500 40.7722
108.5000 30.0738
108.5500 33.6120
108.6000 35.7238
108.6500 29.8629
108.7000 33.1557
108.7500 35.4229
108.8000 35.3158
108.8500 30.5388
108.9000 32.4635
108.9500 21.9245
109.0000 30.4574
109.0500 35.5332
109.1000 27.5060
109.1500 23.4897
109.2000 29.0943
109.2500 41.2021
109.3000 41.5637
109.3500 29.7445
109.4000 22.7794
109.4500 25.1278
109.5000 24.5275
109.5500 24.0320
109.6000 30.5927
109.6500 28.6614
109.7000 26.2122
109.7500 37.7067
109.8000 30.8053
109.8500 33.0721
109.9000 19.7139
109.9500 34.7670
110.0000 26.9591
110.0500 37.5708
110.1000 29.1482
110.1500 34.3566
110.2000 32.6520
110.2500 29.6172
110.3000 43.8857
110.3500 27.6261
110.4000 28.7549
110.4500 38.8166
110.5000 31.9202
110.5500 31.6297
110.6000 25.3227
110.6500 36.5149
110.7000 23.1916
110.7500 19.0365
110.8000 29.0599
110.8500 22.4685
110.9000 25.5785
110.9500 18.0341
111.0000 22.9180
111.0500 31.9879
111.1000 23.3618
111.1500 24.9051
111.2000 33.9775
111.2500 27.1972
111.3000 26.5144
111.3500 34.3164
111.4000 30.8619
111.4500 26.1971
111.5000 31.8517
111.5500 27.9681
111.6000 33.7509
111.6500 29.9582
111.7000 44.7655
111.7500 29.9034
111.8000 30.7151
111.8500 30.8254
111.9000 30.0462
111.9500 23.9185
112.0000 21.3981
112.0500 26.7567
112.1000 30.1849
112.1500 24.8794
112.2000 20.3751
112.2500 30.9129
112.3000 37.3244
112.3500 25.2813
112.4000 25.7321
112.4500 33.7328
112.5000 34.9255
112.5500 30.3743
112.6000 26.3987
112.6500 37.0964
112.7000 26.5296
112.7500 34.3520
112.8000 24.3286
112.8500 37.3178
112.9000 31.9884
112.9500 35.8717
113.0000 29.5543
113.0500 28.8695
113.1000 24.3709
113.1500 36.2346
113.2000 48.5092
113.2500 38.2244
113.3000 32.0765
113.3500 39.0267
113.4000 39.2597
113.4500 29.6153
113.5000 33.4479
113.5500 30.8472
113.6000 31.3650
113.6500 26.6098
113.7000 25.6578
113.7500 35.2062
113.8000 33.3136
113.8500 30.4326
113.9000 28.3680
113.9500 20.1110
114.0000 36.7906
114.0500 21.8841
114.1000 29.5590
114.1500 35.6658
114.2000 21.7598
114.2500 29.7730
114.3000 33.1699
114.3500 37.5542
114.4000 27.4244
114.4500 27.4974
114.5000 30.0119
114.5500 24.1250
114.6000 27.5135
114.6500 17.1670
114.7000 27.3207
114.7500 32.2465
114.8000 41.3682
114.8500 34.8924
114.9000 24.5121
114.9500 25.7558
115.0000 29.0236
115.0500 37.4200
115.1000 34.7246
115.1500 31.3298
115.2000 36.5898
115.2500 28.1039
115.3000 34.7061
115.3500 49.3664
115.4000 41.5549
115.4500 40.7167
115.5000 43.6520
115.5500 42.2473
115.6000 53.2505
115.6500 50.2784
115.7000 66.4339
115.7500 88.7592
115.8000 88.1626
115.8500 89.5860
115.9000 101.7025
115.9500 81.9983
116.0000 103.9758
116.0500 78.4629
116.1000 76.9175
116.1500 52.2482
116.2000 38.4974
116.2500 29.6625
116.3000 28.5229
116.3500 37.1774
116.4000 29.4375
116.4500 34.4573
116.5000 29.9125
116.5500 34.1810
116.6000 36.1819
116.6500 24.9669
116.7000 28.8246
116.7500 24.0315
116.8000 31.4410
116.8500 25.8089
116.9000 42.6664
116.9500 31.0004
117.0000 24.7509
117.0500 22.9169
117.1000 30.5911
117.1500 31.6748
117.2000 35.2738
117.2500 28.5568
117.3000 33.6929
117.3500 23.7650
117.4000 25.2746
117.4500 27.7237
117.5000 27.9910
117.5500 27.4040
117.6000 27.1119
117.6500 32.8734
117.7000 26.1704
117.7500 31.2892
117.8000 32.0766
117.8500 35.9794
117.9000 30.0650
117.9500 26.7488
118.0000 29.1235
118.0500 30.2197
118.1000 32.8553
118.1500 35.7323
118.2000 25.1653
118.2500 24.3814
118.3000 25.8001
118.3500 37.5751
118.4000 33.2913
118.4500 29.8623
118.5000 33.3988
118.5500 30.4110
118.6000 25.7209
118.6500 28.0896
118.7000 37.8516
118.7500 18.1513
118.8000 20.8158
118.8500 33.1857
118.9000 34.0890
118.9500 27.6309
119.0000 44.7992
119.0500 36.2895
119.1000 30.9343
119.1500 27.8654
119.2000 37.4187
119.2500 33.0076
119.3000 32.6549
119.3500 29.6136
119.4000 37.8571
119.4500 31.8776
119.5000 28.8418
119.5500 46.6839
119.6000 29.1724
119.6500 37.5669
119.7000 32.1456
119.7500 24.8182
119.8000 39.4054
119.8500 17.9801
119.9000 23.2170
119.9500 22.2340
120.0000 24.4727
120.0500 23.1175
120.1000 40.1806
120.1500 29.8890
120.2000 38.3563
120.2500 30.6370
120.3000 23.7781
120.3500 26.2959
120.4000 20.4817
120.4500 29.9919
120.5000 20.1904
120.5500 23.8340
120.6000 32.1224
120.6500 39.7612
120.7000 20.8597
120.7500 34.7921
120.8000 39.4519
120.8500 29.2896
120.9000 28.0887
120.9500 36.9281
121.0000 22.5775
121.0500 42.3033
121.1000 29.7818
121.1500 26.6967
121.2000 30.5426
121.2500 32.5670
121.3000 30.5876
121.3500 34.9498
121.4000 29.8232
121.4500 24.6303
121.5000 23.3888
121.5500 31.7309
121.6000 31.5063
121.6500 29.6706
121.7000 34.2887
121.7500 30.0575
121.8000 34.0242
121.8500 25.2728
121.9000 24.6840
121.9500 25.3428
122.0000 35.1101
122.0500 29.4329
122.1000 21.5945
122.1500 41.2670
122.2000 25.4370
122.2500 26.5350
122.3000 25.2578
122.3500 37.4266
122.4000 25.9080
122.4500 24.9535
122.5000 30.6159
122.5500 34.9626
122.6000 31.8464
122.6500 34.4908
122.7000 22.7096
122.7500 29.2090
122.8000 32.9121
122.8500 25.5361
122.9000 24.7972
122.9500 37.7633
123.0000 31.1756
123.0500 29.8519
123.1000 30.4641
123.1500 26.3639
123.2000 21.3652
123.2500 33.5189
123.3000 26.6023
123.3500 31.6089
123.4000 30.9940
123.4500 32.1961
123.5000 38.1615
123.5500 32.3645
123.6000 26.4044
123.6500 40.9907
123.7000 29.1798
123.7500 29.6263
123.8000 24.0539
123.8500 37.2848
123.9000 23.1332
123.9500 24.5049
124.0000 34.6056
124.0500 26.9856
124.1000 31.0907
124.1500 29.8042
124.2000 24.9495
124.2500 22.2721
124.3000 33.7563
124.3500 40.2881
124.4000 29.7194
124.4500 39.2465
124.5000 25.1910
124.5500 24.1742
124.6000 37.1972
124.6500 27.7848
124.7000 20.3521
124.7500 24.6361
124.8000 29.9670
124.8500 34.3928
124.9000 23.9602
124.9500 22.8601
125.0000 20.0141
125.0500 40.1313
125.1000 21.8054
125.1500 40.6437
125.2000 35.2825
125.2500 28.0388
125.3000 22.9494
125.3500 36.3045
125.4000 30.5143
125.4500 33.9862
125.5000 33.7120
125.5500 16.9548
125.6000 33.0008
125.6500 38.8840
125.7000 25.6716
125.7500 26.9195
125.8000 22.9510
125.8500 31.1009
125.9000 34.0537
125.9500 39.2261
126.0000 24.8556
126.0500 30.5023
126.1000 42.7076
126.1500 26.5703
126.2000 27.2328
126.2500 33.4478
126.3000 38.1068
126.3500 31.9074
126.4000 30.0132
126.4500 34.0256
126.5000 33.9194
126.5500 24.8806
126.6000 28.1460
126.6500 32.6708
126.7000 30.5382
126.7500 31.8298
126.8000 23.5918
126.8500 36.4002
126.9000 28.4728
126.9500 42.3991
127.0000 26.5306
127.0500 24.6906
127.1000 36.8449
127.1500 32.2164
127.2000 28.6813
127.2500 27.8620
127.3000 36.9714
127.3500 25.1211
127.4000 20.7016
127.4500 25.9310
127.5000 38.7858
127.5500 30.9333
127.6000 24.1625
127.6500 26.5273
127.7000 22.3695
127.7500 29.3883
127.8000 31.8204
127.8500 24.8016
127.9000 24.9255
127.9500 30.3184
128.0000 25.7624
128.0500 35.0213
128.1000 37.7027
128.1500 28.5728
128.2000 29.7941
128.2500 31.8459
128.3000 28.4971
128.3500 23.8518
128.4000 27.9961
128.4500 31.0425
128.5000 29.1647
128.5500 33.6941
128.6000 29.8489
128.6500 38.9952
128.7000 29.7297
128.7500 26.9507
128.8000 30.7771
128.8500 42.0891
128.9000 32.6415
128.9500 36.1881
129.0000 31.6239
129.0500 26.7990
129.1000 33.5223
129.1500 29.8776
129.2000 39.3768
129.2500 41.2465
129.3000 22.4539
129.3500 32.2815
129.4000 18.1043
129.4500 27.8716
129.5000 34.7592
129.5500 28.5689
129.6000 21.5011
129.6500 35.5596
129.7000 35.1036
129.7500 32.0693
129.8000 32.3943
129.8500 36.3300
129.9000 23.8135
129.9500 35.1567
130.0000 43.6258
