#Collected Data-117
#Intensity_unit=counts
#Attenuator_coefficient=1.000000
40.0000 48.0510
40.0100 55.6284
40.0200 34.9514
40.0300 37.4047
40.0400 44.6414
40.0500 50.8633
40.0600 59.9769
40.0700 54.4055
40.0800 48.7778
40.0900 55.8433
40.1000 55.3386
40.1100 47.4381
40.1200 41.0091
40.1300 56.5234
40.1400 40.5307
40.1500 48.1719
40.1600 50.2346
40.1700 49.9375
40.1800 50.3803
40.1900 42.2763
40.2000 49.2490
40.2100 55.5601
40.2200 51.6760
40.2300 42.6477
40.2400 43.5974
40.2500 67.4324
40.2600 40.8709
40.2700 61.3348
40.2800 51.8548
40.2900 54.3177
40.3000 36.8747
40.3100 48.9139
40.3200 55.9713
40.3300 50.0634
40.3400 49.5607
40.3500 47.4040
40.3600 43.6300
40.3700 39.2924
40.3800 50.1059
40.3900 37.4235
40.4000 39.8434
40.4100 47.9250
40.4200 55.5246
40.4300 55.8750
40.4400 47.5355
40.4500 53.9121
40.4600 47.1069
40.4700 44.2907
40.4800 50.3563
40.4900 63.7987
40.5000 44.4749
40.5100 45.0810
40.5200 48.8089
40.5300 59.1197
40.5400 40.5388
40.5500 49.8781
40.5600 47.4183
40.5700 52.6199
40.5800 46.4125
40.5900 46.6394
40.6000 54.9506
40.6100 49.4092
40.6200 46.4731
40.6300 45.7161
40.6400 52.5542
40.6500 53.6913
40.6600 43.5977
40.6700 39.9762
40.6800 54.8818
40.6900 59.4295
40.7000 48.3332
40.7100 47.3123
40.7200 58.9234
40.7300 53.3524
40.7400 64.6356
40.7500 49.0915
40.7600 41.6844
40.7700 41.3427
40.7800 49.6532
40.7900 55.1539
40.8000 49.9109
40.8100 47.9807
40.8200 50.0065
40.8300 52.8363
40.8400 63.2800
40.8500 43.7476
40.8600 47.5051
40.8700 49.2215
40.8800 50.2226
40.8900 56.9377
40.9000 45.3021
40.9100 44.3977
40.9200 48.1549
40.9300 56.4713
40.9400 46.4752
40.9500 56.1665
40.9600 46.7661
40.9700 48.8669
40.9800 54.7247
40.9900 51.1843
41.0000 42.7400
41.0100 41.3030
41.0200 44.4163
41.0300 55.9453
41.0400 39.9135
41.0500 43.8103
41.0600 40.3696
41.0700 54.5398
41.0800 49.1526
41.0900 59.2024
41.1000 43.5157
41.1100 55.9107
41.1200 52.2758
41.1300 50.7230
41.1400 40.6991
41.1500 45.3955
41.1600 44.7598
41.1700 47.7930
41.1800 59.2875
41.1900 52.3159
41.2000 51.0749
41.2100 60.3413
41.2200 47.6685
41.2300 48.2149
41.2400 58.7522
41.2500 49.2417
41.2600 52.8093
41.2700 49.7982
41.2800 56.7797
41.2900 54.7779
41.3000 52.1623
41.3100 64.7981
41.3200 55.2398
41.3300 60.5338
41.3400 55.9313
41.3500 40.5836
41.3600 47.8774
41.3700 59.3392
41.3800 53.3956
41.3900 43.2850
41.4000 51.2688
41.4100 45.1564
41.4200 43.4427
41.4300 52.4080
41.4400 62.6958
41.4500 47.9605
41.4600 60.0199
41.4700 57.3929
41.4800 61.8965
41.4900 61.9840
41.5000 51.9869
41.5100 45.1345
41.5200 58.1102
41.5300 46.6866
41.5400 74.5104
41.5500 45.0395
41.5600 51.6892
41.5700 47.5107
41.5800 53.0345
41.5900 47.2778
41.6000 44.2854
41.6100 53.2094
41.6200 52.8807
41.6300 49.3693
41.6400 49.8977
41.6500 49.7759
41.6600 52.0292
41.6700 61.6812
41.6800 54.1834
41.6900 55.3584
41.7000 50.6056
41.7100 49.7601
41.7200 51.7494
41.7300 39.6379
41.7400 48.8036
41.7500 51.8046
41.7600 58.0441
41.7700 58.4667
41.7800 34.1954
41.7900 48.5217
41.8000 55.1506
41.8100 54.0127
41.8200 53.5607
41.8300 61.9908
41.8400 43.9464
41.8500 60.4903
41.8600 53.5759
41.8700 57.4200
41.8800 46.2067
41.8900 55.4531
41.9000 59.3124
41.9100 47.4880
41.9200 50.4463
41.9300 52.8664
41.9400 56.1278
41.9500 52.6436
41.9600 60.9189
41.9700 49.4142
41.9800 53.9299
41.9900 52.9663
42.0000 61.5365
42.0100 56.2533
42.0200 65.7803
42.0300 64.3181
42.0400 59.3818
42.0500 57.3420
42.0600 48.9665
42.0700 59.3157
42.0800 55.8214
42.0900 71.9539
42.1000 59.1747
42.1100 57.2398
42.1200 63.2284
42.1300 54.3088
42.1400 54.9242
42.1500 51.3245
42.1600 55.6678
42.1700 48.4656
42.1800 48.4103
42.1900 59.2028
42.2000 44.9187
42.2100 38.8083
42.2200 45.4217
42.2300 57.8505
42.2400 58.4732
42.2500 61.6287
42.2600 51.1097
42.2700 56.8343
42.2800 55.4824
42.2900 65.8279
42.3000 45.0996
42.3100 51.1051
42.3200 45.1242
42.3300 54.3291
42.3400 51.0381
42.3500 72.3787
42.3600 53.4279
42.3700 53.4739
42.3800 62.5078
42.3900 64.2089
42.4000 62.6804
42.4100 53.8187
42.4200 60.2742
42.4300 54.8252
42.4400 47.0384
42.4500 61.6129
42.4600 54.8090
42.4700 67.9713
42.4800 60.6974
42.4900 54.7052
42.5000 52.8259
42.5100 65.4337
42.5200 52.3651
42.5300 50.8128
42.5400 43.8704
42.5500 55.9369
42.5600 60.9509
42.5700 44.7885
42.5800 52.1363
42.5900 51.9530
42.6000 61.0886
42.6100 61.0527
42.6200 64.6775
42.6300 51.2232
42.6400 48.0695
42.6500 58.3316
42.6600 56.1428
42.6700 67.9841
42.6800 72.6786
42.6900 62.1861
42.7000 57.3696
42.7100 54.8069
42.7200 48.9123
42.7300 45.9106
42.7400 55.0599
42.7500 47.2261
42.7600 57.5797
42.7700 61.6030
42.7800 65.9093
42.7900 57.5131
42.8000 51.5453
42.8100 71.2175
42.8200 60.5101
42.8300 58.4168
42.8400 66.4496
42.8500 56.6045
42.8600 63.2096
42.8700 61.9396
42.8800 72.4680
42.8900 67.2277
42.9000 65.8113
42.9100 54.4366
42.9200 60.9366
42.9300 67.9139
42.9400 56.1568
42.9500 57.5489
42.9600 52.9979
42.9700 66.8490
42.9800 59.5373
42.9900 52.1005
43.0000 56.1130
43.0100 60.1333
43.0200 52.7282
43.0300 58.4901
43.0400 70.1664
43.0500 68.6841
43.0600 66.6970
43.0700 61.6373
43.0800 81.1677
43.0900 64.0011
43.1000 82.0085
43.1100 61.4510
43.1200 67.5079
43.1300 53.8470
43.1400 54.9450
43.1500 54.3479
43.1600 53.2507
43.1700 61.1501
43.1800 61.0107
43.1900 63.8294
43.2000 62.7720
43.2100 61.6313
43.2200 58.6349
43.2300 62.1956
43.2400 67.0933
43.2500 62.2396
43.2600 57.4412
43.2700 64.3604
43.2800 58.9827
43.2900 68.8229
43.3000 74.8594
43.3100 55.9780
43.3200 68.3480
43.3300 66.8775
43.3400 70.7514
43.3500 76.1295
43.3600 51.4779
43.3700 59.6722
43.3800 62.8542
43.3900 64.8268
43.4000 73.1894
43.4100 61.7188
43.4200 66.4762
43.4300 59.9569
43.4400 59.6971
43.4500 68.6998
43.4600 70.3167
43.4700 71.3431
43.4800 61.5000
43.4900 63.9039
43.5000 61.4298
43.5100 58.8720
43.5200 59.7750
43.5300 59.0520
43.5400 65.8741
43.5500 68.8836
43.5600 60.9460
43.5700 73.4469
43.5800 58.3750
43.5900 67.9259
43.6000 69.5578
43.6100 76.7777
43.6200 59.3431
43.6300 71.2404
43.6400 76.4563
43.6500 66.3839
43.6600 69.6977
43.6700 59.8223
43.6800 66.9794
43.6900 64.4566
43.7000 68.6590
43.7100 62.8376
43.7200 71.9475
43.7300 63.0469
43.7400 60.5246
43.7500 70.4516
43.7600 63.4246
43.7700 60.8816
43.7800 80.8012
43.7900 74.2343
43.8000 68.9288
43.8100 74.3795
43.8200 66.1307
43.8300 53.7075
43.8400 57.0666
43.8500 64.2865
43.8600 67.6563
43.8700 56.0922
43.8800 72.8086
43.8900 66.2154
43.9000 58.8667
43.9100 55.3537
43.9200 66.9368
43.9300 64.6068
43.9400 62.8310
43.9500 59.0137
43.9600 59.9937
43.9700 72.6552
43.9800 76.9195
43.9900 61.6355
44.0000 64.3368
44.0100 54.3854
44.0200 55.1047
44.0300 55.3159
44.0400 58.1305
44.0500 59.5717
44.0600 73.1310
44.0700 64.5022
44.0800 60.7138
44.0900 60.3928
44.1000 67.8334
44.1100 62.2800
44.1200 65.8906
44.1300 56.4227
44.1400 49.2656
44.1500 67.2026
44.1600 64.4957
44.1700 68.6808
44.1800 72.4706
44.1900 68.0400
44.2000 63.9656
44.2100 65.3401
44.2200 68.5919
44.2300 62.0482
44.2400 67.4005
44.2500 77.0921
44.2600 75.8414
44.2700 62.3203
44.2800 66.8855
44.2900 62.9715
44.3000 71.9124
44.3100 57.5227
44.3200 61.2684
44.3300 67.2274
44.3400 62.2800
44.3500 70.2318
44.3600 67.0337
44.3700 72.0547
44.3800 56.5230
44.3900 51.1434
44.4000 78.0618
44.4100 55.0971
44.4200 59.7931
44.4300 69.9563
44.4400 64.8936
44.4500 55.1498
44.4600 58.6379
44.4700 69.3047
44.4800 71.9393
44.4900 59.7409
44.5000 56.0272
44.5100 64.3468
44.5200 64.4414
44.5300 65.3566
44.5400 61.0733
44.5500 61.7052
44.5600 57.4692
44.5700 62.3436
44.5800 62.1970
44.5900 56.0341
44.6000 70.4873
44.6100 77.1376
44.6200 66.0024
44.6300 61.1746
44.6400 70.6764
44.6500 56.2161
44.6600 71.1725
44.6700 80.2702
44.6800 59.9095
44.6900 57.0330
44.7000 62.9284
44.7100 58.2346
44.7200 58.3781
44.7300 52.1463
44.7400 61.6036
44.7500 73.1189
44.7600 74.4963
44.7700 56.8940
44.7800 62.0045
44.7900 57.1716
44.8000 66.4519
44.8100 50.1293
44.8200 69.6066
44.8300 49.7106
44.8400 66.0787
44.8500 70.9071
44.8600 58.4861
44.8700 71.4798
44.8800 62.5904
44.8900 67.4563
44.9000 58.7777
44.9100 53.4661
44.9200 59.7177
44.9300 65.7983
44.9400 64.2227
44.9500 58.8650
44.9600 67.2133
44.9700 72.5040
44.9800 68.8306
44.9900 67.7776
45.0000 67.4541
45.0100 76.4428
45.0200 69.7305
45.0300 57.5924
45.0400 53.9186
45.0500 62.4906
45.0600 68.0324
45.0700 68.6986
45.0800 70.4810
45.0900 74.1231
45.1000 72.7538
45.1100 61.6734
45.1200 53.4234
45.1300 70.7452
45.1400 73.1256
45.1500 64.7840
45.1600 70.3435
45.1700 61.6868
45.1800 60.7419
45.1900 59.8739
45.2000 53.5161
45.2100 59.5435
45.2200 69.4238
45.2300 69.5683
45.2400 54.1886
45.2500 63.7022
45.2600 71.8270
45.2700 62.6517
45.2800 78.1262
45.2900 65.9426
45.3000 73.1217
45.3100 61.2979
45.3200 60.7120
45.3300 56.9652
45.3400 74.8676
45.3500 66.6715
45.3600 61.0914
45.3700 67.1327
45.3800 60.1019
45.3900 65.5763
45.4000 64.2114
45.4100 58.0872
45.4200 54.0636
45.4300 66.6433
45.4400 74.9427
45.4500 52.5707
45.4600 59.7192
45.4700 55.8033
45.4800 55.7669
45.4900 55.9689
45.5000 50.8450
45.5100 54.7826
45.5200 59.1187
45.5300 70.6650
45.5400 56.3687
45.5500 60.7623
45.5600 61.2318
45.5700 57.7502
45.5800 58.8422
45.5900 63.6051
45.6000 60.1969
45.6100 79.9434
45.6200 66.0445
45.6300 55.4543
45.6400 63.5867
45.6500 53.1247
45.6600 57.0373
45.6700 54.6868
45.6800 63.5622
45.6900 57.0432
45.7000 59.2464
45.7100 62.9922
45.7200 83.3091
45.7300 53.7874
45.7400 58.1045
45.7500 53.1925
45.7600 59.3582
45.7700 72.9512
45.7800 66.8176
45.7900 59.8572
45.8000 60.9909
45.8100 53.7856
45.8200 68.0062
45.8300 54.3079
45.8400 56.8167
45.8500 55.8818
45.8600 61.0445
45.8700 59.6546
45.8800 47.1616
45.8900 49.3025
45.9000 53.6925
45.9100 52.1812
45.9200 66.7394
45.9300 56.0516
45.9400 52.9586
45.9500 55.8211
45.9600 50.2480
45.9700 68.5036
45.9800 52.6636
45.9900 56.2296
46.0000 59.7851
46.0100 59.3080
46.0200 60.5110
46.0300 61.4385
46.0400 53.8656
46.0500 60.0986
46.0600 53.6581
46.0700 52.2245
46.0800 56.3674
46.0900 41.1547
46.1000 63.2436
46.1100 56.2902
46.1200 52.0208
46.1300 61.1974
46.1400 63.2583
46.1500 63.1383
46.1600 60.9946
46.1700 54.5032
46.1800 53.5170
46.1900 62.7440
46.2000 55.5455
46.2100 61.1083
46.2200 41.8228
46.2300 47.6408
46.2400 52.5053
46.2500 69.9479
46.2600 66.7326
46.2700 53.4694
46.2800 55.1640
46.2900 46.0908
46.3000 61.6114
46.3100 52.7091
46.3200 61.8186
46.3300 41.8651
46.3400 63.5668
46.3500 60.4299
46.3600 55.6978
46.3700 68.1444
46.3800 53.5131
46.3900 64.1526
46.4000 55.0152
46.4100 59.5895
46.4200 55.6939
46.4300 55.5193
46.4400 52.6127
46.4500 52.7482
46.4600 52.5330
46.4700 54.9311
46.4800 48.5211
46.4900 64.2706
46.5000 62.6755
46.5100 43.1444
46.5200 53.9402
46.5300 53.0163
46.5400 59.0214
46.5500 50.1552
46.5600 62.6760
46.5700 44.6595
46.5800 45.6111
46.5900 51.6291
46.6000 57.4503
46.6100 49.5889
46.6200 48.9200
46.6300 47.8488
46.6400 53.7766
46.6500 42.1061
46.6600 46.7575
46.6700 66.8151
46.6800 56.0372
46.6900 65.3376
46.7000 53.0217
46.7100 40.6466
46.7200 54.4514
46.7300 52.3303
46.7400 46.2197
46.7500 60.8776
46.7600 60.0607
46.7700 53.5591
46.7800 59.3815
46.7900 52.0369
46.8000 50.5315
46.8100 58.8892
46.8200 46.2683
46.8300 52.2365
46.8400 47.8464
46.8500 50.0584
46.8600 51.0594
46.8700 42.0317
46.8800 37.6361
46.8900 50.7957
46.9000 51.1259
46.9100 48.8163
46.9200 57.9992
46.9300 45.8311
46.9400 63.7254
46.9500 57.0808
46.9600 50.6949
46.9700 49.2787
46.9800 59.1047
46.9900 56.8315
47.0000 44.1432
47.0100 40.7676
47.0200 42.6489
47.0300 37.6398
47.0400 54.3917
47.0500 53.8563
47.0600 47.2517
47.0700 53.4268
47.0800 42.8014
47.0900 52.1542
47.1000 52.3979
47.1100 48.7722
47.1200 49.6080
47.1300 46.2754
47.1400 43.0023
47.1500 53.7311
47.1600 60.6108
47.1700 46.0969
47.1800 51.1726
47.1900 45.4863
47.2000 50.3603
47.2100 42.4210
47.2200 43.7999
47.2300 56.1674
47.2400 43.0048
47.2500 55.7038
47.2600 57.2220
47.2700 52.5714
47.2800 54.7469
47.2900 48.6918
47.3000 37.3782
47.3100 57.7723
47.3200 52.8554
47.3300 45.2712
47.3400 45.0034
47.3500 37.7849
47.3600 51.2049
47.3700 59.1007
47.3800 49.8715
47.3900 37.2004
47.4000 61.6936
47.4100 55.2850
47.4200 51.8611
47.4300 45.9205
47.4400 50.2963
47.4500 53.3949
47.4600 53.2744
47.4700 44.5051
47.4800 42.6944
47.4900 52.9681
47.5000 54.8254
47.5100 63.9152
47.5200 44.9706
47.5300 44.2328
47.5400 47.7928
47.5500 42.2350
47.5600 40.0402
47.5700 47.0011
47.5800 47.5024
47.5900 51.5705
47.6000 47.4509
47.6100 49.0446
47.6200 49.2882
47.6300 49.4052
47.6400 42.0498
47.6500 46.8684
47.6600 56.5441
47.6700 62.5689
47.6800 45.2021
47.6900 47.8645
47.7000 43.6934
47.7100 45.9043
47.7200 46.5700
47.7300 54.3933
47.7400 52.1439
47.7500 47.8079
47.7600 48.4430
47.7700 57.9472
47.7800 47.6183
47.7900 40.8462
47.8000 38.7614
47.8100 46.4095
47.8200 45.8655
47.8300 49.8340
47.8400 54.0278
47.8500 51.4278
47.8600 60.2600
47.8700 55.5764
47.8800 50.2869
47.8900 54.2352
47.9000 41.2095
47.9100 46.7693
47.9200 50.3216
47.9300 48.3638
47.9400 50.7781
47.9500 48.5494
47.9600 46.8141
47.9700 41.9966
47.9800 41.8724
47.9900 60.1893
48.0000 57.4887
48.0100 46.7512
48.0200 36.7487
48.0300 50.2222
48.0400 46.4229
48.0500 36.9938
48.0600 40.1967
48.0700 47.3888
48.0800 52.0653
48.0900 56.3590
48.1000 51.2422
48.1100 49.2070
48.1200 58.8833
48.1300 41.8038
48.1400 38.7259
48.1500 48.8967
48.1600 57.2119
48.1700 51.6546
48.1800 48.3764
48.1900 45.7666
48.2000 49.6770
48.2100 62.1666
48.2200 52.0173
48.2300 48.5368
48.2400 40.5786
48.2500 45.4434
48.2600 63.3221
48.2700 49.7473
48.2800 54.4171
48.2900 41.9383
48.3000 47.8242
48.3100 59.9841
48.3200 45.1788
48.3300 50.5539
48.3400 47.7657
48.3500 47.3551
48.3600 53.1618
48.3700 56.8307
48.3800 61.9896
48.3900 42.7094
48.4000 57.8992
48.4100 46.2621
48.4200 43.0070
48.4300 46.4686
48.4400 42.4257
48.4500 46.7728
48.4600 54.7830
48.4700 58.3234
48.4800 42.5622
48.4900 60.4260
48.5000 49.5494
48.5100 41.6998
48.5200 51.9899
48.5300 34.3894
48.5400 46.5678
48.5500 41.0531
48.5600 59.4289
48.5700 47.4423
48.5800 52.3234
48.5900 43.9234
48.6000 46.7547
48.6100 45.1871
48.6200 50.1773
48.6300 41.7356
48.6400 40.4907
48.6500 44.7925
48.6600 43.8438
48.6700 43.9616
48.6800 48.4985
48.6900 43.5872
48.7000 45.3165
48.7100 53.6126
48.7200 54.4824
48.7300 62.8044
48.7400 53.3075
48.7500 47.9715
48.7600 44.2412
48.7700 53.4636
48.7800 51.1317
48.7900 57.6234
48.8000 42.6768
48.8100 52.0473
48.8200 45.3214
48.8300 55.2293
48.8400 50.2261
48.8500 41.0127
48.8600 49.9283
48.8700 41.3143
48.8800 49.2298
48.8900 52.5240
48.9000 51.4510
48.9100 49.9074
48.9200 41.5639
48.9300 58.9527
48.9400 37.9875
48.9500 45.3106
48.9600 37.9322
48.9700 50.4331
48.9800 43.4414
48.9900 42.5551
49.0000 41.3068
49.0100 54.1205
49.0200 52.8147
49.0300 41.3867
49.0400 36.6657
49.0500 50.2085
49.0600 59.3200
49.0700 57.6510
49.0800 44.4704
49.0900 52.3097
49.1000 46.9144
49.1100 49.8034
49.1200 55.7447
49.1300 45.5421
49.1400 45.7295
49.1500 48.6118
49.1600 41.7186
49.1700 56.7539
49.1800 52.4873
49.1900 44.4047
49.2000 54.9211
49.2100 62.3244
49.2200 51.2853
49.2300 48.0558
49.2400 55.5270
49.2500 51.9932
49.2600 51.7348
49.2700 45.5210
49.2800 33.7495
49.2900 44.0041
49.3000 38.5084
49.3100 43.6694
49.3200 42.1806
49.3300 51.3784
49.3400 49.8525
49.3500 52.8213
49.3600 57.3970
49.3700 49.2838
49.3800 46.5969
49.3900 56.7329
49.4000 51.2877
49.4100 56.5069
49.4200 43.0594
49.4300 45.1023
49.4400 50.8279
49.4500 46.7492
49.4600 46.3810
49.4700 44.3921
49.4800 47.6473
49.4900 61.4249
49.5000 53.0105
49.5100 58.8704
49.5200 54.2647
49.5300 44.0449
49.5400 47.0121
49.5500 49.3325
49.5600 56.3045
49.5700 47.7117
49.5800 45.0644
49.5900 67.4585
49.6000 50.3810
49.6100 50.0340
49.6200 53.5838
49.6300 46.1693
49.6400 45.6577
49.6500 43.7207
49.6600 32.5532
49.6700 30.8320
49.6800 40.6201
49.6900 43.7366
49.7000 49.0179
49.7100 52.7263
49.7200 45.6446
49.7300 51.1174
49.7400 60.1619
49.7500 43.5385
49.7600 52.3515
49.7700 46.6584
49.7800 42.9975
49.7900 45.7358
49.8000 41.7250
49.8100 37.9816
49.8200 52.0042
49.8300 48.4733
49.8400 36.2164
49.8500 40.0971
49.8600 51.0384
49.8700 43.9333
49.8800 56.7551
49.8900 45.7616
49.9000 37.2925
49.9100 50.3368
49.9200 38.2603
49.9300 45.7970
49.9400 57.9997
49.9500 45.2029
49.9600 51.0362
49.9700 58.9556
49.9800 43.9578
49.9900 40.9396
50.0000 42.0091
50.0100 38.5491
50.0200 37.0805
50.0300 53.7988
50.0400 51.0412
50.0500 48.9971
50.0600 37.9412
50.0700 44.5100
50.0800 54.3043
50.0900 44.5744
50.1000 53.5212
50.1100 39.3614
50.1200 53.3211
50.1300 44.0258
50.1400 41.5442
50.1500 37.0219
50.1600 40.9497
50.1700 43.4403
50.1800 44.7253
50.1900 43.7691
50.2000 36.9212
50.2100 46.8010
50.2200 50.1364
50.2300 57.3445
50.2400 43.4919
50.2500 51.0644
50.2600 47.8346
50.2700 43.4013
50.2800 50.2042
50.2900 53.2607
50.3000 50.4714
50.3100 41.5575
50.3200 54.9393
50.3300 45.0710
50.3400 65.4511
50.3500 63.7518
50.3600 46.7364
50.3700 56.7647
50.3800 51.6814
50.3900 50.1432
50.4000 52.3523
50.4100 45.2301
50.4200 45.5363
50.4300 50.2135
50.4400 46.7517
50.4500 58.2275
50.4600 40.2028
50.4700 54.7776
50.4800 37.9435
50.4900 41.4525
50.5000 41.2877
50.5100 54.9993
50.5200 51.2827
50.5300 48.4368
50.5400 42.3159
50.5500 45.5345
50.5600 56.1705
50.5700 49.9315
50.5800 52.8643
50.5900 41.7797
50.6000 42.5192
50.6100 53.5825
50.6200 55.3957
50.6300 39.3842
50.6400 40.4347
50.6500 36.7204
50.6600 46.5430
50.6700 45.2145
50.6800 52.1869
50.6900 49.0707
50.7000 58.2228
50.7100 51.7588
50.7200 48.3354
50.7300 46.3772
50.7400 41.1935
50.7500 47.1862
50.7600 52.8629
50.7700 48.8974
50.7800 42.0284
50.7900 46.3452
50.8000 37.7476
50.8100 55.1938
50.8200 37.0741
50.8300 38.9493
50.8400 44.8147
50.8500 48.8624
50.8600 41.1139
50.8700 51.6969
50.8800 53.2961
50.8900 57.4891
50.9000 58.2394
50.9100 48.3045
50.9200 49.8990
50.9300 50.0836
50.9400 44.8384
50.9500 47.8340
50.9600 49.5763
50.9700 43.1820
50.9800 49.0912
50.9900 42.7749
51.0000 54.4067
51.0100 50.4803
51.0200 53.0576
51.0300 44.8110
51.0400 52.4664
51.0500 52.5950
51.0600 56.2392
51.0700 56.5001
51.0800 55.1858
51.0900 50.9540
51.1000 55.9217
51.1100 44.1710
51.1200 56.1742
51.1300 45.2366
51.1400 50.2198
51.1500 49.6078
51.1600 62.6600
51.1700 64.1874
51.1800 46.1999
51.1900 38.7781
51.2000 51.9584
51.2100 52.8303
51.2200 37.0714
51.2300 48.2037
51.2400 36.8173
51.2500 52.3555
51.2600 44.4678
51.2700 40.5138
51.2800 48.3170
51.2900 51.8652
51.3000 35.3698
51.3100 41.7889
51.3200 47.7663
51.3300 47.2114
51.3400 47.2308
51.3500 42.7577
51.3600 48.9338
51.3700 35.9828
51.3800 35.5914
51.3900 51.1999
51.4000 52.2178
51.4100 43.0102
51.4200 48.4666
51.4300 52.2963
51.4400 57.9767
51.4500 47.8403
51.4600 58.3728
51.4700 48.9241
51.4800 37.6747
51.4900 55.4322
51.5000 49.5077
51.5100 41.6385
51.5200 52.1944
51.5300 46.3744
51.5400 43.3077
51.5500 51.4415
51.5600 42.1701
51.5700 43.9385
51.5800 58.9528
51.5900 52.7406
51.6000 31.1136
51.6100 47.0889
51.6200 47.3585
51.6300 51.2571
51.6400 46.2668
51.6500 45.0427
51.6600 50.8525
51.6700 47.0790
51.6800 53.8983
51.6900 45.5721
51.7000 41.7366
51.7100 46.5116
51.7200 40.5565
51.7300 46.4594
51.7400 56.5506
51.7500 51.0109
51.7600 43.8995
51.7700 47.3678
51.7800 43.0119
51.7900 45.4415
51.8000 49.1220
51.8100 61.2767
51.8200 47.0472
51.8300 55.6629
51.8400 37.5969
51.8500 46.6136
51.8600 41.4950
51.8700 42.0854
51.8800 57.0252
51.8900 57.2551
51.9000 50.7447
51.9100 50.2155
51.9200 53.1337
51.9300 36.7693
51.9400 41.2084
51.9500 44.7218
51.9600 52.0169
51.9700 48.3559
51.9800 40.1285
51.9900 48.9105
52.0000 41.1952
52.0100 41.7056
52.0200 53.2530
52.0300 51.6061
52.0400 53.4766
52.0500 60.4860
52.0600 41.7604
52.0700 43.4667
52.0800 55.0148
52.0900 54.8954
52.1000 42.7911
52.1100 41.4122
52.1200 45.1679
52.1300 50.4952
52.1400 49.8393
52.1500 47.4409
52.1600 50.0349
52.1700 51.5925
52.1800 56.5904
52.1900 43.3800
52.2000 40.0775
52.2100 52.6658
52.2200 48.5916
52.2300 45.2973
52.2400 37.1125
52.2500 49.3127
52.2600 64.9170
52.2700 47.9029
52.2800 71.6263
52.2900 48.2589
52.3000 48.5128
52.3100 50.2294
52.3200 58.3982
52.3300 56.1594
52.3400 54.9549
52.3500 38.0818
52.3600 58.2399
52.3700 42.2401
52.3800 43.1410
52.3900 42.6063
52.4000 49.0134
52.4100 43.8640
52.4200 49.3041
52.4300 49.6743
52.4400 58.0057
52.4500 50.0163
52.4600 55.6646
52.4700 52.1435
52.4800 38.3223
52.4900 46.5993
52.5000 42.1208
52.5100 54.8360
52.5200 45.7576
52.5300 44.2344
52.5400 38.4254
52.5500 34.2462
52.5600 46.8354
52.5700 33.2841
52.5800 43.5226
52.5900 38.5409
52.6000 36.2397
52.6100 41.4662
52.6200 56.7610
52.6300 46.0361
52.6400 52.9712
52.6500 49.5709
52.6600 45.1815
52.6700 41.3137
52.6800 43.5620
52.6900 51.8436
52.7000 52.5289
52.7100 51.1449
52.7200 47.5332
52.7300 53.8046
52.7400 64.1381
52.7500 54.0646
52.7600 53.8540
52.7700 41.4195
52.7800 35.0963
52.7900 58.5988
52.8000 46.7905
52.8100 52.5888
52.8200 62.6341
52.8300 52.0786
52.8400 54.7252
52.8500 40.8766
52.8600 45.1111
52.8700 37.8378
52.8800 46.2141
52.8900 37.4759
52.9000 44.3676
52.9100 51.6465
52.9200 45.3320
52.9300 43.6001
52.9400 49.9209
52.9500 50.8491
52.9600 47.8883
52.9700 50.9551
52.9800 49.6426
52.9900 36.3860
53.0000 38.5222
53.0100 60.1328
53.0200 39.9772
53.0300 45.6961
53.0400 39.7080
53.0500 46.9136
53.0600 46.7329
53.0700 45.2573
53.0800 50.9663
53.0900 43.8947
53.1000 42.1225
53.1100 38.2008
53.1200 39.4093
53.1300 37.6444
53.1400 36.2214
53.1500 56.3168
53.1600 48.0805
53.1700 43.1439
53.1800 39.0985
53.1900 49.7076
53.2000 51.9448
53.2100 42.5985
53.2200 44.2580
53.2300 43.5478
53.2400 53.2959
53.2500 50.4223
53.2600 44.8048
53.2700 39.6551
53.2800 57.5061
53.2900 51.5286
53.3000 51.3834
53.3100 55.2934
53.3200 36.2225
53.3300 51.8905
53.3400 48.5557
53.3500 45.9388
53.3600 50.0600
53.3700 39.6022
53.3800 47.2818
53.3900 51.2465
53.4000 49.0937
53.4100 44.7662
53.4200 47.6400
53.4300 50.4445
53.4400 43.9725
53.4500 44.4001
53.4600 47.7231
53.4700 58.2719
53.4800 45.6985
53.4900 55.0719
53.5000 45.9368
53.5100 39.3873
53.5200 42.0831
53.5300 46.9212
53.5400 50.7370
53.5500 53.6953
53.5600 54.3739
53.5700 53.5725
53.5800 47.4222
53.5900 44.5873
53.6000 42.5045
53.6100 45.0754
53.6200 60.0887
53.6300 45.2126
53.6400 48.9269
53.6500 51.7233
53.6600 41.8479
53.6700 51.3124
53.6800 45.5475
53.6900 53.5782
53.7000 54.3539
53.7100 53.5460
53.7200 46.5224
53.7300 40.7113
53.7400 50.6963
53.7500 46.8496
53.7600 63.2534
53.7700 49.3469
53.7800 36.5984
53.7900 38.4171
53.8000 50.6265
53.8100 40.0209
53.8200 46.8835
53.8300 53.6155
53.8400 41.4125
53.8500 48.1269
53.8600 54.3738
53.8700 59.9440
53.8800 57.0668
53.8900 45.0236
53.9000 44.6446
53.9100 59.0998
53.9200 52.6479
53.9300 55.3902
53.9400 45.8055
53.9500 44.5185
53.9600 52.5535
53.9700 49.9326
53.9800 37.8203
53.9900 39.1152
54.0000 44.0033
54.0100 48.6910
54.0200 53.4708
54.0300 38.2283
54.0400 51.5046
54.0500 46.8104
54.0600 52.5722
54.0700 49.2151
54.0800 52.3014
54.0900 55.6425
54.1000 37.5968
54.1100 56.7358
54.1200 55.4698
54.1300 43.9331
54.1400 48.5589
54.1500 56.4972
54.1600 43.1428
54.1700 39.7581
54.1800 47.8687
54.1900 44.4852
54.2000 57.5213
54.2100 49.8749
54.2200 42.8544
54.2300 48.1749
54.2400 45.9431
54.2500 55.0313
54.2600 51.9342
54.2700 51.5331
54.2800 46.3959
54.2900 50.9434
54.3000 49.0638
54.3100 35.0304
54.3200 46.8208
54.3300 52.5409
54.3400 37.9847
54.3500 48.3719
54.3600 54.4089
54.3700 38.7964
54.3800 44.3677
54.3900 48.6611
54.4000 42.3234
54.4100 38.2075
54.4200 42.4133
54.4300 40.1519
54.4400 51.7376
54.4500 55.2047
54.4600 55.7569
54.4700 41.6567
54.4800 59.8810
54.4900 47.1505
54.5000 57.3291
54.5100 51.2270
54.5200 41.6628
54.5300 51.5091
54.5400 44.4280
54.5500 38.1257
54.5600 54.2284
54.5700 48.1667
54.5800 51.1165
54.5900 46.2584
54.6000 40.2679
54.6100 52.3796
54.6200 41.8898
54.6300 47.4950
54.6400 40.3897
54.6500 46.9209
54.6600 55.1814
54.6700 47.0801
54.6800 41.7703
54.6900 55.6359
54.7000 46.4586
54.7100 46.6834
54.7200 45.2412
54.7300 43.5918
54.7400 61.1030
54.7500 63.3571
54.7600 45.1964
54.7700 49.8378
54.7800 34.5482
54.7900 43.0743
54.8000 40.0116
54.8100 47.6239
54.8200 45.5566
54.8300 51.3921
54.8400 59.1318
54.8500 50.8354
54.8600 51.3802
54.8700 39.6392
54.8800 41.9830
54.8900 51.6990
54.9000 44.9104
54.9100 53.2142
54.9200 43.0820
54.9300 45.2157
54.9400 37.2607
54.9500 42.9275
54.9600 48.7411
54.9700 40.5150
54.9800 56.0548
54.9900 38.5841
55.0000 51.7342
55.0100 49.1844
55.0200 40.4583
55.0300 45.8450
55.0400 38.4037
55.0500 43.0319
55.0600 47.8193
55.0700 39.9117
55.0800 45.7662
55.0900 43.1292
55.1000 49.5345
55.1100 58.8103
55.1200 42.8321
55.1300 47.5583
55.1400 46.9213
55.1500 52.0325
55.1600 50.4939
55.1700 45.9564
55.1800 55.2344
55.1900 45.8731
55.2000 53.2794
55.2100 43.2920
55.2200 42.2931
55.2300 52.3191
55.2400 48.1927
55.2500 41.3867
55.2600 44.8992
55.2700 36.9156
55.2800 41.3788
55.2900 46.6779
55.3000 57.1273
55.3100 50.9996
55.3200 61.6789
55.3300 45.3744
55.3400 30.3502
55.3500 47.9445
55.3600 38.9941
55.3700 49.9458
55.3800 53.1178
55.3900 40.4538
55.4000 60.3896
55.4100 50.9486
55.4200 46.8024
55.4300 48.7578
55.4400 40.9147
55.4500 41.8282
55.4600 39.1636
55.4700 45.4371
55.4800 55.6518
55.4900 49.0574
55.5000 49.3631
55.5100 42.3050
55.5200 48.1678
55.5300 38.9562
55.5400 50.0184
55.5500 53.1567
55.5600 53.9766
55.5700 54.6566
55.5800 55.8397
55.5900 44.0534
55.6000 45.6217
55.6100 41.9292
55.6200 54.3705
55.6300 45.7557
55.6400 45.0995
55.6500 43.0721
55.6600 48.1369
55.6700 37.2858
55.6800 41.9983
55.6900 39.7717
55.7000 41.9245
55.7100 43.3257
55.7200 52.1696
55.7300 41.7993
55.7400 48.1042
55.7500 45.9355
55.7600 40.4224
55.7700 49.5682
55.7800 45.9186
55.7900 46.1098
55.8000 52.9503
55.8100 52.6904
55.8200 49.6926
55.8300 48.9298
55.8400 47.9454
55.8500 46.4824
55.8600 51.5283
55.8700 45.4821
55.8800 41.9697
55.8900 43.1718
55.9000 57.1124
55.9100 52.5808
55.9200 42.5427
55.9300 40.8404
55.9400 46.0932
55.9500 40.2413
55.9600 46.0033
55.9700 48.9616
55.9800 51.7737
55.9900 47.1531
56.0000 47.7995
56.0100 45.5302
56.0200 51.1093
56.0300 42.0342
56.0400 55.2138
56.0500 40.4618
56.0600 49.3184
56.0700 42.7511
56.0800 46.5479
56.0900 41.2706
56.1000 34.4502
56.1100 51.4785
56.1200 54.7202
56.1300 44.1362
56.1400 38.0660
56.1500 59.4198
56.1600 42.2035
56.1700 48.1247
56.1800 53.3855
56.1900 40.6967
56.2000 48.1841
56.2100 40.4643
56.2200 36.9594
56.2300 51.5777
56.2400 56.2053
56.2500 53.7236
56.2600 53.1644
56.2700 42.4963
56.2800 43.4981
56.2900 55.0352
56.3000 49.2082
56.3100 56.6783
56.3200 45.4445
56.3300 50.3913
56.3400 39.8810
56.3500 33.5931
56.3600 56.9743
56.3700 49.2454
56.3800 44.3113
56.3900 38.6126
56.4000 47.6888
56.4100 57.5158
56.4200 41.9910
56.4300 41.1199
56.4400 46.7817
56.4500 37.8378
56.4600 40.5561
56.4700 43.3085
56.4800 49.7915
56.4900 54.9447
56.5000 57.5678
56.5100 42.6856
56.5200 46.7094
56.5300 39.2922
56.5400 40.3333
56.5500 38.3973
56.5600 53.6533
56.5700 53.8401
56.5800 42.9823
56.5900 54.2263
56.6000 45.4436
56.6100 49.6636
56.6200 51.6203
56.6300 51.8714
56.6400 47.0258
56.6500 58.6205
56.6600 36.7398
56.6700 47.0962
56.6800 55.7079
56.6900 70.3107
56.7000 46.7985
56.7100 54.5708
56.7200 48.3346
56.7300 47.5261
56.7400 46.2565
56.7500 43.4539
56.7600 47.2659
56.7700 53.3748
56.7800 37.7601
56.7900 42.3453
56.8000 52.1648
56.8100 51.3563
56.8200 54.7123
56.8300 38.1619
56.8400 49.9824
56.8500 44.6593
56.8600 53.0637
56.8700 55.6653
56.8800 50.0628
56.8900 53.8031
56.9000 71.4646
56.9100 64.1962
56.9200 36.4079
56.9300 46.7414
56.9400 53.1371
56.9500 46.6862
56.9600 43.3201
56.9700 32.4571
56.9800 46.3617
56.9900 32.5017
57.0000 45.1389
57.0100 47.1722
57.0200 32.7286
57.0300 52.4530
57.0400 45.4536
57.0500 46.9744
57.0600 44.0884
57.0700 42.2702
57.0800 41.6833
57.0900 43.7309
57.1000 44.3860
57.1100 49.1616
57.1200 50.7378
57.1300 52.7302
57.1400 46.1047
57.1500 56.8663
57.1600 43.1063
57.1700 45.9409
57.1800 42.8105
57.1900 48.5627
57.2000 42.3785
57.2100 54.9914
57.2200 52.6027
57.2300 42.7608
57.2400 54.2392
57.2500 49.6384
57.2600 51.5699
57.2700 43.5230
57.2800 48.0680
57.2900 49.3280
57.3000 48.6206
57.3100 54.9823
57.3200 52.0108
57.3300 55.7002
57.3400 48.4449
57.3500 50.9304
57.3600 42.8405
57.3700 33.9551
57.3800 50.7930
57.3900 36.5451
57.4000 47.4074
57.4100 46.7621
57.4200 44.4014
57.4300 46.8984
57.4400 62.0842
57.4500 51.4960
57.4600 50.9216
57.4700 44.4852
57.4800 52.7198
57.4900 44.0201
57.5000 49.5744
57.5100 56.3130
57.5200 43.6853
57.5300 44.4529
57.5400 52.7220
57.5500 47.0677
57.5600 43.0168
57.5700 48.1392
57.5800 47.2897
57.5900 44.5584
57.6000 52.9511
57.6100 46.6572
57.6200 53.6694
57.6300 54.4416
57.6400 51.1512
57.6500 41.9952
57.6600 43.4152
57.6700 51.8917
57.6800 47.8662
57.6900 60.4544
57.7000 62.4976
57.7100 59.6606
57.7200 44.8611
57.7300 59.0902
57.7400 45.8821
57.7500 49.9878
57.7600 49.4917
57.7700 49.3476
57.7800 57.9762
57.7900 42.3480
57.8000 48.4109
57.8100 47.8000
57.8200 57.2129
57.8300 48.5928
57.8400 46.0582
57.8500 43.1555
57.8600 55.3623
57.8700 61.0281
57.8800 41.7241
57.8900 45.7528
57.9000 46.4795
57.9100 35.6468
57.9200 45.4340
57.9300 54.0670
57.9400 50.4441
57.9500 44.9236
57.9600 43.7956
57.9700 49.3877
57.9800 50.1541
57.9900 48.5413
58.0000 54.9153
58.0100 56.6957
58.0200 41.4973
58.0300 40.7118
58.0400 49.7309
58.0500 53.0775
58.0600 44.1021
58.0700 41.8433
58.0800 45.2538
58.0900 48.9245
58.1000 57.3052
58.1100 46.3340
58.1200 41.6627
58.1300 51.8245
58.1400 49.6944
58.1500 43.7295
58.1600 46.6503
58.1700 54.5147
58.1800 46.9454
58.1900 37.2679
58.2000 40.0809
58.2100 40.4512
58.2200 42.1352
58.2300 41.8588
58.2400 42.2630
58.2500 51.3341
58.2600 53.8064
58.2700 50.9790
58.2800 50.5594
58.2900 61.4428
58.3000 51.2628
58.3100 38.9785
58.3200 36.5117
58.3300 62.6324
58.3400 46.9828
58.3500 54.6048
58.3600 39.2165
58.3700 47.3428
58.3800 50.8650
58.3900 49.4475
58.4000 43.9800
58.4100 48.2614
58.4200 53.3570
58.4300 54.5926
58.4400 53.4382
58.4500 45.8794
58.4600 52.7735
58.4700 49.2856
58.4800 49.0605
58.4900 42.9373
58.5000 40.2953
58.5100 46.0972
58.5200 51.3472
58.5300 56.7010
58.5400 41.9660
58.5500 50.4777
58.5600 45.2870
58.5700 54.5947
58.5800 56.3056
58.5900 51.4745
58.6000 36.1998
58.6100 46.3969
58.6200 26.2698
58.6300 50.1896
58.6400 39.0484
58.6500 47.3432
58.6600 41.2075
58.6700 42.9619
58.6800 46.3617
58.6900 41.5928
58.7000 59.5022
58.7100 60.8630
58.7200 51.1765
58.7300 52.2294
58.7400 52.9296
58.7500 51.4433
58.7600 40.5652
58.7700 46.6482
58.7800 39.4405
58.7900 52.9861
58.8000 47.0386
58.8100 50.1486
58.8200 41.6201
58.8300 43.1594
58.8400 50.2030
58.8500 51.1018
58.8600 51.7718
58.8700 55.5651
58.8800 53.3882
58.8900 44.2342
58.9000 36.5753
58.9100 41.0223
58.9200 44.6429
58.9300 53.0339
58.9400 55.4631
58.9500 52.6639
58.9600 51.9573
58.9700 53.3488
58.9800 46.3012
58.9900 43.9072
59.0000 42.2197
59.0100 63.2679
59.0200 51.4277
59.0300 63.8899
59.0400 42.7498
59.0500 50.0022
59.0600 45.4540
59.0700 46.7889
59.0800 50.4018
59.0900 52.0498
59.1000 38.3351
59.1100 49.6425
59.1200 43.5327
59.1300 46.5004
59.1400 56.6211
59.1500 47.1987
59.1600 54.7622
59.1700 51.4774
59.1800 52.7239
59.1900 60.4099
59.2000 62.4413
59.2100 46.8557
59.2200 37.3493
59.2300 57.9811
59.2400 50.0709
59.2500 42.7965
59.2600 39.9599
59.2700 37.6674
59.2800 44.7123
59.2900 49.6576
59.3000 45.1701
59.3100 50.1001
59.3200 56.2712
59.3300 52.2456
59.3400 48.2972
59.3500 47.3216
59.3600 51.5431
59.3700 44.0997
59.3800 41.4716
59.3900 55.0568
59.4000 48.5761
59.4100 42.7367
59.4200 57.9402
59.4300 54.5874
59.4400 49.2340
59.4500 57.6993
59.4600 41.4264
59.4700 37.1891
59.4800 45.7151
59.4900 47.9433
59.5000 60.3761
59.5100 47.6916
59.5200 52.1850
59.5300 38.8430
59.5400 50.2211
59.5500 45.7709
59.5600 55.0667
59.5700 39.1762
59.5800 50.7533
59.5900 45.0517
59.6000 39.6730
59.6100 43.6290
59.6200 49.2552
59.6300 48.0043
59.6400 50.5034
59.6500 55.0207
59.6600 53.7846
59.6700 35.4751
59.6800 51.3886
59.6900 45.8807
59.7000 68.9083
59.7100 48.7858
59.7200 51.4503
59.7300 45.9233
59.7400 58.2836
59.7500 58.6837
59.7600 54.9325
59.7700 50.9410
59.7800 41.3253
59.7900 46.1546
59.8000 41.2324
59.8100 49.6865
59.8200 45.6421
59.8300 50.4487
59.8400 42.2199
59.8500 49.2447
59.8600 44.4506
59.8700 39.9791
59.8800 52.1847
59.8900 45.5807
59.9000 45.0379
59.9100 39.6789
59.9200 45.3648
59.9300 54.1300
59.9400 45.0280
59.9500 53.2722
59.9600 45.8834
59.9700 43.2085
59.9800 50.0862
59.9900 47.5497
60.0000 50.3233
60.0100 54.5881
60.0200 49.8818
60.0300 52.4578
60.0400 49.2387
60.0500 43.4788
60.0600 40.2418
60.0700 49.8775
60.0800 49.5433
60.0900 50.4767
60.1000 39.9919
60.1100 48.0797
60.1200 46.3556
60.1300 42.3387
60.1400 58.3007
60.1500 46.7097
60.1600 45.7062
60.1700 47.9909
60.1800 49.1988
60.1900 39.9362
60.2000 46.3720
60.2100 48.3837
60.2200 48.6555
60.2300 39.4695
60.2400 51.3633
60.2500 43.0376
60.2600 53.1594
60.2700 58.0358
60.2800 56.8823
60.2900 48.2884
60.3000 53.0909
60.3100 52.1731
60.3200 52.3204
60.3300 46.5989
60.3400 47.1393
60.3500 55.6553
60.3600 56.0164
60.3700 51.6409
60.3800 46.3446
60.3900 45.5617
60.4000 55.9840
60.4100 41.2244
60.4200 49.9047
60.4300 49.2796
60.4400 50.7170
60.4500 48.4507
60.4600 44.0076
60.4700 52.9221
60.4800 50.7360
60.4900 52.6145
60.5000 47.4929
60.5100 47.0260
60.5200 39.6010
60.5300 44.6673
60.5400 44.2352
60.5500 58.5065
60.5600 51.6423
60.5700 40.6982
60.5800 58.1384
60.5900 41.9820
60.6000 57.7975
60.6100 57.4117
60.6200 52.2558
60.6300 49.0369
60.6400 53.3346
60.6500 57.8776
60.6600 46.0329
60.6700 43.9050
60.6800 44.7497
60.6900 47.0515
60.7000 45.9710
60.7100 57.1905
60.7200 51.8904
60.7300 48.6936
60.7400 47.4148
60.7500 42.5668
60.7600 47.0546
60.7700 39.4411
60.7800 48.7905
60.7900 49.6211
60.8000 49.0832
60.8100 50.7690
60.8200 48.3282
60.8300 47.6407
60.8400 50.9853
60.8500 49.3563
60.8600 50.9603
60.8700 41.2258
60.8800 47.7218
60.8900 57.5163
60.9000 37.6524
60.9100 32.8372
60.9200 38.1893
60.9300 47.9804
60.9400 52.0740
60.9500 40.2743
60.9600 46.4428
60.9700 38.0173
60.9800 50.4284
60.9900 38.5499
61.0000 43.6355
61.0100 55.3163
61.0200 48.6407
61.0300 50.5303
61.0400 53.3768
61.0500 43.9098
61.0600 44.2256
61.0700 49.0040
61.0800 55.0707
61.0900 47.7599
61.1000 53.3782
61.1100 49.3907
61.1200 60.8335
61.1300 53.4159
61.1400 46.5946
61.1500 46.5807
61.1600 49.6415
61.1700 59.9059
61.1800 45.9928
61.1900 34.3152
61.2000 55.6640
61.2100 53.3497
61.2200 61.7234
61.2300 48.5011
61.2400 53.7993
61.2500 54.6327
61.2600 43.5905
61.2700 48.2471
61.2800 34.8019
61.2900 54.8832
61.3000 57.1146
61.3100 43.7650
61.3200 39.0433
61.3300 54.2254
61.3400 47.5413
61.3500 47.0047
61.3600 51.6934
61.3700 52.2936
61.3800 46.8062
61.3900 51.5901
61.4000 44.5196
61.4100 41.8685
61.4200 38.0613
61.4300 44.5334
61.4400 40.5724
61.4500 48.9962
61.4600 42.7000
61.4700 45.4170
61.4800 45.9117
61.4900 36.3674
61.5000 61.7350
61.5100 52.6450
61.5200 60.9729
61.5300 52.5669
61.5400 43.9551
61.5500 55.2974
61.5600 42.8257
61.5700 57.5271
61.5800 50.3188
61.5900 41.2359
61.6000 42.8541
61.6100 52.2628
61.6200 50.2646
61.6300 45.6262
61.6400 42.4104
61.6500 51.9729
61.6600 51.1437
61.6700 45.2122
61.6800 55.0547
61.6900 40.6042
61.7000 50.8015
61.7100 47.8515
61.7200 46.7711
61.7300 49.4813
61.7400 52.3913
61.7500 52.3121
61.7600 51.9612
61.7700 54.5882
61.7800 62.4252
61.7900 52.5983
61.8000 49.7051
61.8100 39.4710
61.8200 42.7577
61.8300 57.0912
61.8400 50.4392
61.8500 51.0598
61.8600 57.2699
61.8700 32.0714
61.8800 57.0384
61.8900 48.7964
61.9000 44.7142
61.9100 59.3859
61.9200 56.4959
61.9300 49.5134
61.9400 36.3929
61.9500 37.7375
61.9600 38.9342
61.9700 56.2437
61.9800 43.8876
61.9900 51.4003
62.0000 40.9679
62.0100 46.8246
62.0200 55.2524
62.0300 36.8656
62.0400 54.0527
62.0500 54.0342
62.0600 62.0606
62.0700 41.8503
62.0800 45.1351
62.0900 38.9208
62.1000 49.3570
62.1100 31.2067
62.1200 43.3891
62.1300 52.0183
62.1400 48.8529
62.1500 53.3233
62.1600 48.4165
62.1700 48.5260
62.1800 37.7062
62.1900 36.5607
62.2000 52.6111
62.2100 54.9575
62.2200 46.7957
62.2300 56.8451
62.2400 53.1780
62.2500 42.2333
62.2600 55.9054
62.2700 49.3764
62.2800 63.9296
62.2900 58.7591
62.3000 39.8990
62.3100 42.4491
62.3200 50.8495
62.3300 48.9083
62.3400 44.7245
62.3500 54.2860
62.3600 52.0270
62.3700 33.2299
62.3800 56.8866
62.3900 59.0900
62.4000 55.3230
62.4100 55.9326
62.4200 42.8758
62.4300 47.9951
62.4400 44.6905
62.4500 47.7225
62.4600 55.7184
62.4700 47.3216
62.4800 52.1658
62.4900 49.5992
62.5000 41.2205
62.5100 42.7583
62.5200 49.1467
62.5300 43.3733
62.5400 54.5723
62.5500 54.3850
62.5600 61.3105
62.5700 50.1973
62.5800 50.0437
62.5900 57.5452
62.6000 53.3064
62.6100 38.6927
62.6200 51.9778
62.6300 51.2384
62.6400 52.8164
62.6500 44.7790
62.6600 61.4880
62.6700 42.3559
62.6800 42.6842
62.6900 39.0488
62.7000 54.0660
62.7100 46.2239
62.7200 58.9093
62.7300 52.1850
62.7400 51.5602
62.7500 46.1384
62.7600 43.5836
62.7700 38.5803
62.7800 49.4686
62.7900 59.8820
62.8000 60.3479
62.8100 44.7879
62.8200 53.2896
62.8300 44.3897
62.8400 48.5543
62.8500 53.0070
62.8600 55.5871
62.8700 44.2834
62.8800 60.4132
62.8900 53.1021
62.9000 57.6230
62.9100 44.9436
62.9200 56.9718
62.9300 46.0625
62.9400 48.4476
62.9500 48.1129
62.9600 47.3605
62.9700 44.7778
62.9800 48.4720
62.9900 49.2970
63.0000 37.8732
63.0100 51.6122
63.0200 52.9772
63.0300 47.1791
63.0400 44.5926
63.0500 44.5523
63.0600 37.0830
63.0700 41.5468
63.0800 58.8721
63.0900 51.1370
63.1000 40.6982
63.1100 50.8282
63.1200 59.7425
63.1300 38.1892
63.1400 44.7444
63.1500 37.9314
63.1600 38.2631
63.1700 33.7066
63.1800 55.8230
63.1900 58.6342
63.2000 48.1511
63.2100 60.4223
63.2200 47.3998
63.2300 53.4355
63.2400 28.9946
63.2500 52.5124
63.2600 47.4598
63.2700 54.4746
63.2800 65.1685
63.2900 49.8330
63.3000 52.1109
63.3100 53.4889
63.3200 53.6326
63.3300 44.5372
63.3400 57.0187
63.3500 44.7367
63.3600 50.0067
63.3700 50.8808
63.3800 40.7710
63.3900 44.3182
63.4000 49.6494
63.4100 44.4988
63.4200 42.8732
63.4300 56.6100
63.4400 51.3360
63.4500 42.9031
63.4600 49.7587
63.4700 47.2413
63.4800 56.2403
63.4900 54.9337
63.5000 47.3341
63.5100 55.1399
63.5200 52.8965
63.5300 51.4855
63.5400 49.5655
63.5500 44.0755
63.5600 57.2176
63.5700 48.2106
63.5800 38.4998
63.5900 51.7899
63.6000 50.5623
63.6100 54.5193
63.6200 48.2647
63.6300 55.5155
63.6400 50.2980
63.6500 42.3531
63.6600 44.4077
63.6700 35.7791
63.6800 53.2265
63.6900 35.8083
63.7000 50.7337
63.7100 54.0337
63.7200 54.1607
63.7300 53.4803
63.7400 58.5390
63.7500 48.9907
63.7600 56.0107
63.7700 54.7902
63.7800 51.7669
63.7900 42.5267
63.8000 44.2023
63.8100 57.2080
63.8200 42.2632
63.8300 48.4276
63.8400 50.8419
63.8500 55.2096
63.8600 44.8185
63.8700 41.8073
63.8800 57.0509
63.8900 52.7271
63.9000 47.3245
63.9100 53.0063
63.9200 47.3144
63.9300 56.4659
63.9400 49.0294
63.9500 53.9332
63.9600 42.1282
63.9700 43.6032
63.9800 46.4506
63.9900 58.4112
64.0000 43.3619
64.0100 46.8073
64.0200 60.6458
64.0300 65.5464
64.0400 53.0481
64.0500 48.8987
64.0600 63.5647
64.0700 49.9750
64.0800 40.6471
64.0900 61.7273
64.1000 52.2901
64.1100 51.6155
64.1200 41.0333
64.1300 40.5285
64.1400 56.5247
64.1500 48.3856
64.1600 56.1841
64.1700 55.4669
64.1800 54.9917
64.1900 38.2618
64.2000 51.8783
64.2100 52.1487
64.2200 42.9361
64.2300 54.3593
64.2400 39.2227
64.2500 45.5229
64.2600 54.8965
64.2700 52.0591
64.2800 53.7058
64.2900 54.7114
64.3000 51.2374
64.3100 48.7808
64.3200 48.1462
64.3300 61.3492
64.3400 50.7825
64.3500 50.2867
64.3600 53.3158
64.3700 46.1831
64.3800 58.0926
64.3900 41.9976
64.4000 55.8563
64.4100 53.1369
64.4200 45.7944
64.4300 45.5622
64.4400 50.5353
64.4500 52.9023
64.4600 45.8898
64.4700 51.5962
64.4800 47.8672
64.4900 52.4853
64.5000 50.9135
64.5100 39.3398
64.5200 55.4781
64.5300 50.0507
64.5400 52.6644
64.5500 40.3816
64.5600 39.9407
64.5700 49.4353
64.5800 52.7637
64.5900 55.3950
64.6000 51.1566
64.6100 52.7059
64.6200 58.5695
64.6300 43.5293
64.6400 54.8431
64.6500 54.9605
64.6600 49.6943
64.6700 52.2065
64.6800 43.8657
64.6900 47.3675
64.7000 56.7678
64.7100 37.0854
64.7200 45.4924
64.7300 49.3790
64.7400 49.5570
64.7500 55.7520
64.7600 52.9398
64.7700 48.0479
64.7800 46.6692
64.7900 41.6389
64.8000 50.1378
64.8100 54.7236
64.8200 52.3162
64.8300 47.5804
64.8400 49.9441
64.8500 68.2857
64.8600 46.1778
64.8700 47.5905
64.8800 50.2555
64.8900 47.7092
64.9000 46.4513
64.9100 49.1413
64.9200 50.1065
64.9300 50.8107
64.9400 45.2765
64.9500 51.1064
64.9600 54.3818
64.9700 62.2042
64.9800 43.0807
64.9900 48.1912
65.0000 54.6591
65.0100 55.5813
65.0200 43.8915
65.0300 48.4306
65.0400 56.3630
65.0500 48.5250
65.0600 49.9575
65.0700 44.3626
65.0800 52.1170
65.0900 39.9983
65.1000 52.4750
65.1100 50.4294
65.1200 56.0393
65.1300 41.3508
65.1400 55.7820
65.1500 38.3533
65.1600 39.4828
65.1700 41.1595
65.1800 62.0697
65.1900 57.4939
65.2000 46.4110
65.2100 52.4572
65.2200 46.1188
65.2300 50.4401
65.2400 61.2343
65.2500 58.2155
65.2600 46.1961
65.2700 51.9469
65.2800 42.9072
65.2900 38.2716
65.3000 42.2410
65.3100 46.7037
65.3200 38.1631
65.3300 40.6982
65.3400 45.4603
65.3500 60.8461
65.3600 56.4378
65.3700 43.7154
65.3800 50.7738
65.3900 46.6821
65.4000 53.1508
65.4100 48.8729
65.4200 55.9809
65.4300 56.4421
65.4400 60.8939
65.4500 55.3526
65.4600 50.1104
65.4700 32.1547
65.4800 43.9390
65.4900 44.9449
65.5000 58.8277
65.5100 50.0630
65.5200 52.7093
65.5300 53.6550
65.5400 42.6210
65.5500 41.3513
65.5600 43.8032
65.5700 29.0935
65.5800 36.3706
65.5900 42.2794
65.6000 49.7181
65.6100 57.1161
65.6200 46.3847
65.6300 49.4427
65.6400 52.6366
65.6500 53.1575
65.6600 48.8236
65.6700 48.3090
65.6800 42.1607
65.6900 53.2736
65.7000 43.3355
65.7100 42.0752
65.7200 38.2381
65.7300 45.8393
65.7400 50.0561
65.7500 42.3472
65.7600 59.0045
65.7700 53.0320
65.7800 42.1593
65.7900 50.2108
65.8000 48.6859
65.8100 40.9749
65.8200 37.9491
65.8300 39.5803
65.8400 53.1246
65.8500 44.3946
65.8600 49.1691
65.8700 49.1017
65.8800 59.4386
65.8900 53.2364
65.9000 38.6090
65.9100 39.2808
65.9200 48.7688
65.9300 46.2043
65.9400 57.0729
65.9500 52.3318
65.9600 46.4929
65.9700 53.3742
65.9800 71.6442
65.9900 44.4651
66.0000 45.4513
66.0100 51.2257
66.0200 42.2731
66.0300 54.9746
66.0400 44.9288
66.0500 50.9603
66.0600 52.3116
66.0700 47.6462
66.0800 63.8749
66.0900 47.1137
66.1000 55.3496
66.1100 53.7957
66.1200 48.5617
66.1300 45.8698
66.1400 46.4570
66.1500 57.2916
66.1600 60.5700
66.1700 58.0823
66.1800 59.7274
66.1900 49.0285
66.2000 44.4822
66.2100 49.7316
66.2200 49.5170
66.2300 54.3737
66.2400 52.8185
66.2500 47.4424
66.2600 50.1065
66.2700 40.2627
66.2800 49.3981
66.2900 44.4972
66.3000 46.0042
66.3100 50.7405
66.3200 41.4308
66.3300 45.4002
66.3400 57.3698
66.3500 58.5169
66.3600 50.9674
66.3700 56.8461
66.3800 53.3086
66.3900 55.0109
66.4000 46.6601
66.4100 48.7864
66.4200 56.2892
66.4300 53.9872
66.4400 46.7307
66.4500 43.1218
66.4600 44.4004
66.4700 47.6271
66.4800 45.1813
66.4900 53.1408
66.5000 49.3484
66.5100 48.9007
66.5200 43.5968
66.5300 56.9512
66.5400 49.8722
66.5500 41.9936
66.5600 49.7948
66.5700 55.6569
66.5800 51.0496
66.5900 43.3641
66.6000 44.7055
66.6100 43.4903
66.6200 40.5329
66.6300 47.4307
66.6400 51.0731
66.6500 65.2076
66.6600 46.7093
66.6700 47.7715
66.6800 38.9779
66.6900 45.6165
66.7000 50.7415
66.7100 45.5812
66.7200 47.5162
66.7300 51.0664
66.7400 54.9575
66.7500 46.3269
66.7600 44.9089
66.7700 50.4757
66.7800 49.8039
66.7900 50.2079
66.8000 49.1692
66.8100 58.6512
66.8200 42.6880
66.8300 44.0747
66.8400 43.7628
66.8500 44.3299
66.8600 43.3218
66.8700 43.9264
66.8800 51.4750
66.8900 63.6978
66.9000 43.3569
66.9100 55.5054
66.9200 44.2428
66.9300 43.1575
66.9400 44.0682
66.9500 44.1156
66.9600 55.7805
66.9700 38.9538
66.9800 44.7281
66.9900 46.4532
67.0000 51.0239
67.0100 47.3382
67.0200 44.0050
67.0300 44.5348
67.0400 42.7982
67.0500 56.9665
67.0600 41.8520
67.0700 48.0794
67.0800 52.1414
67.0900 33.7874
67.1000 54.7512
67.1100 53.3034
67.1200 43.3819
67.1300 49.9702
67.1400 44.7903
67.1500 46.5786
67.1600 47.3389
67.1700 51.7699
67.1800 53.3844
67.1900 42.9158
67.2000 67.3348
67.2100 48.9352
67.2200 53.9129
67.2300 50.7802
67.2400 54.4214
67.2500 52.3229
67.2600 55.9659
67.2700 60.9472
67.2800 49.6293
67.2900 58.2281
67.3000 63.9023
67.3100 55.0076
67.3200 50.9003
67.3300 50.7348
67.3400 55.3248
67.3500 55.6801
67.3600 64.5050
67.3700 51.5056
67.3800 49.4761
67.3900 49.1907
67.4000 45.0543
67.4100 63.8035
67.4200 49.2581
67.4300 49.4334
67.4400 48.1337
67.4500 36.3566
67.4600 41.8022
67.4700 47.4353
67.4800 62.6069
67.4900 51.2792
67.5000 57.4366
67.5100 43.3323
67.5200 47.9728
67.5300 46.9945
67.5400 46.2147
67.5500 45.9529
67.5600 46.6481
67.5700 48.6966
67.5800 55.4943
67.5900 53.4617
67.6000 36.7103
67.6100 53.7340
67.6200 56.2850
67.6300 44.4227
67.6400 56.4546
67.6500 44.5134
67.6600 55.0161
67.6700 53.8178
67.6800 39.3739
67.6900 59.8659
67.7000 49.6691
67.7100 53.9866
67.7200 42.6782
67.7300 41.8939
67.7400 46.3854
67.7500 49.0662
67.7600 43.5852
67.7700 48.9309
67.7800 50.1463
67.7900 51.5538
67.8000 43.2119
67.8100 45.1173
67.8200 49.3316
67.8300 46.0884
67.8400 39.4608
67.8500 42.7994
67.8600 49.7107
67.8700 45.4588
67.8800 35.3458
67.8900 66.8127
67.9000 36.2872
67.9100 66.1047
67.9200 36.0960
67.9300 36.8960
67.9400 36.2100
67.9500 46.9439
67.9600 49.7104
67.9700 57.4389
67.9800 49.2631
67.9900 43.3802
68.0000 52.2986
68.0100 53.4357
68.0200 51.6412
68.0300 44.3611
68.0400 48.1358
68.0500 54.6238
68.0600 48.1142
68.0700 44.3461
68.0800 45.1661
68.0900 47.8505
68.1000 48.8734
68.1100 53.5924
68.1200 48.7894
68.1300 45.7869
68.1400 51.1751
68.1500 52.4392
68.1600 47.1630
68.1700 51.3786
68.1800 47.0664
68.1900 43.9207
68.2000 46.0407
68.2100 56.2354
68.2200 51.2926
68.2300 41.2067
68.2400 46.1254
68.2500 49.4238
68.2600 57.7030
68.2700 58.3218
68.2800 50.7685
68.2900 49.2232
68.3000 42.8609
68.3100 49.0253
68.3200 35.7598
68.3300 55.2944
68.3400 54.7352
68.3500 42.0656
68.3600 35.4942
68.3700 49.8556
68.3800 43.1478
68.3900 55.5509
68.4000 59.0210
68.4100 51.7019
68.4200 50.4934
68.4300 51.6002
68.4400 42.7803
68.4500 49.7066
68.4600 40.4778
68.4700 38.0773
68.4800 50.0627
68.4900 40.8658
68.5000 54.8235
68.5100 42.9343
68.5200 44.8159
68.5300 49.1048
68.5400 41.5787
68.5500 52.3012
68.5600 59.2242
68.5700 45.4016
68.5800 47.8632
68.5900 51.7844
68.6000 43.5010
68.6100 46.1671
68.6200 46.0260
68.6300 55.3237
68.6400 47.2307
68.6500 50.2914
68.6600 44.0752
68.6700 37.5217
68.6800 41.7876
68.6900 45.1531
68.7000 50.1213
68.7100 42.9964
68.7200 40.7075
68.7300 43.8341
68.7400 49.1916
68.7500 50.6025
68.7600 43.4770
68.7700 44.6687
68.7800 45.6335
68.7900 40.3913
68.8000 45.7771
68.8100 45.8332
68.8200 49.5281
68.8300 48.5043
68.8400 52.3813
68.8500 52.7999
68.8600 57.6587
68.8700 52.4935
68.8800 49.4038
68.8900 46.6837
68.9000 51.6451
68.9100 57.5416
68.9200 42.5882
68.9300 45.3740
68.9400 63.3598
68.9500 56.0411
68.9600 49.2000
68.9700 53.8688
68.9800 54.1123
68.9900 51.9299
69.0000 49.4104
69.0100 58.5201
69.0200 45.2152
69.0300 54.4821
69.0400 51.4168
69.0500 44.8158
69.0600 37.2972
69.0700 58.0624
69.0800 51.5002
69.0900 46.5021
69.1000 44.8058
69.1100 42.1973
69.1200 54.1928
69.1300 36.0914
69.1400 40.1928
69.1500 39.6560
69.1600 41.4753
69.1700 47.9403
69.1800 48.6167
69.1900 39.6998
69.2000 54.6199
69.2100 46.0281
69.2200 64.0134
69.2300 44.6575
69.2400 41.9582
69.2500 43.5309
69.2600 49.1204
69.2700 47.7932
69.2800 48.4726
69.2900 44.7248
69.3000 47.9610
69.3100 50.0106
69.3200 46.6837
69.3300 43.6058
69.3400 54.8585
69.3500 48.8532
69.3600 48.8312
69.3700 46.8253
69.3800 44.4864
69.3900 55.5408
69.4000 59.9322
69.4100 45.1440
69.4200 54.9563
69.4300 48.5066
69.4400 57.3694
69.4500 53.9140
69.4600 42.8261
69.4700 42.4525
69.4800 43.4003
69.4900 53.1877
69.5000 49.5064
69.5100 48.6591
69.5200 59.5378
69.5300 43.3393
69.5400 48.4782
69.5500 40.9663
69.5600 35.8700
69.5700 45.5175
69.5800 42.2873
69.5900 43.6070
69.6000 38.5020
69.6100 47.3002
69.6200 51.1599
69.6300 50.2776
69.6400 44.7247
69.6500 54.5074
69.6600 47.6501
69.6700 52.6911
69.6800 43.7141
69.6900 37.3586
69.7000 48.1756
69.7100 45.2047
69.7200 52.5293
69.7300 55.7434
69.7400 46.6471
69.7500 47.2078
69.7600 47.2517
69.7700 31.8695
69.7800 42.4095
69.7900 44.0205
69.8000 48.1511
69.8100 48.0465
69.8200 42.3675
69.8300 53.5676
69.8400 41.0238
69.8500 58.0715
69.8600 47.3270
69.8700 41.7415
69.8800 47.1381
69.8900 51.3852
69.9000 51.4973
69.9100 59.3860
69.9200 36.8844
69.9300 50.0841
69.9400 44.4499
69.9500 55.0859
69.9600 44.2248
69.9700 50.2266
69.9800 49.7526
69.9900 47.8172
70.0000 48.8591
70.0100 42.4682
70.0200 51.7440
70.0300 34.5659
70.0400 60.6766
70.0500 46.0275
70.0600 40.9715
70.0700 51.1887
70.0800 52.7906
70.0900 52.2288
70.1000 44.9980
70.1100 44.1844
70.1200 56.5537
70.1300 41.8643
70.1400 53.7928
70.1500 56.8386
70.1600 45.1315
70.1700 50.3231
70.1800 57.9270
70.1900 54.0146
70.2000 47.6367
70.2100 41.4847
70.2200 46.5739
70.2300 52.1548
70.2400 44.0879
70.2500 52.7570
70.2600 43.3287
70.2700 56.2287
70.2800 46.5356
70.2900 44.3258
70.3000 54.4999
70.3100 50.7782
70.3200 44.6966
70.3300 40.2614
70.3400 46.0935
70.3500 52.4132
70.3600 51.4984
70.3700 44.1356
70.3800 46.7225
70.3900 55.1187
70.4000 45.5535
70.4100 49.9611
70.4200 41.8794
70.4300 54.3987
70.4400 57.5620
70.4500 36.8741
70.4600 51.0650
70.4700 57.0550
70.4800 58.0773
70.4900 54.6957
70.5000 50.3410
70.5100 55.6317
70.5200 52.4278
70.5300 40.5350
70.5400 55.6279
70.5500 48.3098
70.5600 48.5420
70.5700 49.5853
70.5800 51.4929
70.5900 62.3849
70.6000 36.2434
70.6100 52.0522
70.6200 52.7776
70.6300 44.5265
70.6400 46.3807
70.6500 56.4848
70.6600 56.0526
70.6700 47.7747
70.6800 48.7691
70.6900 61.1495
70.7000 55.8110
70.7100 56.8284
70.7200 46.8463
70.7300 48.8657
70.7400 50.6803
70.7500 55.7011
70.7600 54.7499
70.7700 48.2114
70.7800 41.5627
70.7900 39.1583
70.8000 44.5084
70.8100 49.6446
70.8200 52.8485
70.8300 40.9770
70.8400 40.3686
70.8500 42.5364
70.8600 44.7990
70.8700 54.0163
70.8800 47.0753
70.8900 66.0869
70.9000 44.7363
70.9100 47.2855
70.9200 59.5094
70.9300 57.3567
70.9400 48.8376
70.9500 36.9636
70.9600 45.1417
70.9700 55.4013
70.9800 41.7705
70.9900 43.4697
71.0000 56.4581
71.0100 56.5640
71.0200 53.4619
71.0300 50.1806
71.0400 47.2434
71.0500 48.9999
71.0600 43.6876
71.0700 39.7410
71.0800 36.9211
71.0900 37.1593
71.1000 43.2569
71.1100 42.1160
71.1200 44.6397
71.1300 58.7354
71.1400 43.0338
71.1500 49.6472
71.1600 51.8357
71.1700 49.3545
71.1800 57.7929
71.1900 49.1723
71.2000 47.0433
71.2100 55.2877
71.2200 54.1212
71.2300 45.0467
71.2400 56.8432
71.2500 42.6037
71.2600 39.1979
71.2700 51.4861
71.2800 38.5543
71.2900 41.0873
71.3000 39.7506
71.3100 42.1255
71.3200 46.8268
71.3300 54.1223
71.3400 50.9830
71.3500 34.4010
71.3600 41.3193
71.3700 53.2198
71.3800 39.2154
71.3900 52.4500
71.4000 57.3394
71.4100 41.6082
71.4200 34.3851
71.4300 52.4892
71.4400 46.2359
71.4500 41.2576
71.4600 40.3067
71.4700 49.6168
71.4800 54.0391
71.4900 41.9087
71.5000 46.6579
71.5100 66.3557
71.5200 52.2742
71.5300 43.5147
71.5400 43.4522
71.5500 49.5136
71.5600 46.6730
71.5700 40.3677
71.5800 47.6398
71.5900 57.2179
71.6000 46.7307
71.6100 44.2793
71.6200 55.9230
71.6300 42.9338
71.6400 47.1462
71.6500 53.5604
71.6600 46.1744
71.6700 51.7236
71.6800 55.1596
71.6900 52.1788
71.7000 43.2635
71.7100 45.5664
71.7200 46.5872
71.7300 36.7863
71.7400 49.8206
71.7500 46.1565
71.7600 46.3373
71.7700 53.8226
71.7800 43.6799
71.7900 56.8286
71.8000 48.8231
71.8100 44.7093
71.8200 41.3661
71.8300 59.1204
71.8400 64.8211
71.8500 54.5506
71.8600 52.9336
71.8700 54.5040
71.8800 48.4250
71.8900 51.9031
71.9000 41.9774
71.9100 51.6253
71.9200 53.2955
71.9300 38.6675
71.9400 42.3455
71.9500 37.4303
71.9600 38.7452
71.9700 52.4589
71.9800 50.0586
71.9900 43.7147
72.0000 46.2462
72.0100 49.0330
72.0200 48.8759
72.0300 53.9994
72.0400 42.2659
72.0500 44.3399
72.0600 44.9031
72.0700 37.0388
72.0800 50.9195
72.0900 43.8950
72.1000 44.2517
72.1100 53.9014
72.1200 47.8656
72.1300 55.8765
72.1400 46.8731
72.1500 39.7531
72.1600 39.9436
72.1700 44.8051
72.1800 44.7894
72.1900 53.2440
72.2000 43.7281
72.2100 43.1686
72.2200 48.4192
72.2300 49.5792
72.2400 46.4829
72.2500 50.2770
72.2600 38.9911
72.2700 46.5126
72.2800 54.2012
72.2900 38.0105
72.3000 42.9560
72.3100 46.1731
72.3200 49.9653
72.3300 52.0808
72.3400 52.7711
72.3500 46.4019
72.3600 56.6407
72.3700 53.2489
72.3800 46.7694
72.3900 48.6634
72.4000 55.5023
72.4100 55.0562
72.4200 43.9126
72.4300 62.2870
72.4400 52.3587
72.4500 54.3239
72.4600 38.8963
72.4700 44.0371
72.4800 50.4707
72.4900 44.5909
72.5000 44.4140
72.5100 53.4301
72.5200 42.4851
72.5300 56.5703
72.5400 61.0555
72.5500 45.9354
72.5600 59.0619
72.5700 47.3789
72.5800 53.5007
72.5900 44.3813
72.6000 49.3051
72.6100 51.0269
72.6200 40.2355
72.6300 48.3695
72.6400 47.6935
72.6500 45.5799
72.6600 45.5928
72.6700 43.8318
72.6800 46.9169
72.6900 44.4085
72.7000 48.3736
72.7100 48.5441
72.7200 44.1399
72.7300 36.6862
72.7400 48.4793
72.7500 47.6373
72.7600 49.7438
72.7700 44.7449
72.7800 45.9819
72.7900 54.6993
72.8000 45.9469
72.8100 43.5264
72.8200 53.9263
72.8300 53.4285
72.8400 57.3286
72.8500 40.8895
72.8600 48.8625
72.8700 42.4006
72.8800 43.4952
72.8900 46.0277
72.9000 50.2524
72.9100 41.4591
72.9200 46.1296
72.9300 48.8275
72.9400 48.7355
72.9500 44.6170
72.9600 57.8217
72.9700 44.2465
72.9800 46.3663
72.9900 58.8447
73.0000 48.0609
73.0100 37.4668
73.0200 48.4541
73.0300 46.9144
73.0400 46.7509
73.0500 40.9605
73.0600 50.8035
73.0700 47.1710
73.0800 49.2692
73.0900 54.3781
73.1000 48.4152
73.1100 39.8403
73.1200 49.5458
73.1300 53.6627
73.1400 50.2146
73.1500 45.9909
73.1600 48.1525
73.1700 48.9252
73.1800 41.8129
73.1900 50.0003
73.2000 56.4116
73.2100 37.5953
73.2200 49.0783
73.2300 47.1344
73.2400 43.4480
73.2500 45.0769
73.2600 47.7144
73.2700 43.9767
73.2800 38.7819
73.2900 49.1024
73.3000 53.4803
73.3100 40.6724
73.3200 47.6837
73.3300 51.8049
73.3400 62.1512
73.3500 53.1202
73.3600 45.4560
73.3700 58.6630
73.3800 54.6260
73.3900 46.9149
73.4000 41.0358
73.4100 45.7384
73.4200 43.5087
73.4300 47.5261
73.4400 46.9874
73.4500 49.2807
73.4600 48.2006
73.4700 40.8929
73.4800 44.9022
73.4900 57.0694
73.5000 53.8679
73.5100 48.7209
73.5200 42.5084
73.5300 40.9355
73.5400 44.3333
73.5500 46.7846
73.5600 52.2640
73.5700 44.9210
73.5800 47.3604
73.5900 45.3175
73.6000 48.4854
73.6100 52.6140
73.6200 43.9739
73.6300 40.2283
73.6400 46.9744
73.6500 56.3795
73.6600 45.5374
73.6700 37.2998
73.6800 50.9914
73.6900 44.0180
73.7000 50.7449
73.7100 50.4126
73.7200 49.9602
73.7300 38.0626
73.7400 46.7369
73.7500 57.9087
73.7600 54.0156
73.7700 38.9575
73.7800 55.5864
73.7900 47.6371
73.8000 49.2070
73.8100 44.2096
73.8200 49.8967
73.8300 52.2904
73.8400 49.2585
73.8500 50.3388
73.8600 42.3065
73.8700 46.9007
73.8800 51.7623
73.8900 40.7537
73.9000 46.3652
73.9100 45.7695
73.9200 50.8188
73.9300 49.3070
73.9400 49.6643
73.9500 36.7696
73.9600 45.3881
73.9700 42.7962
73.9800 43.8832
73.9900 47.1856
74.0000 52.7675
74.0100 39.5613
74.0200 43.9041
74.0300 51.1449
74.0400 47.1543
74.0500 63.0070
74.0600 38.0147
74.0700 60.4050
74.0800 49.6505
74.0900 47.8495
74.1000 54.0408
74.1100 50.2728
74.1200 49.3127
74.1300 59.3488
74.1400 48.2596
74.1500 49.3022
74.1600 45.5996
74.1700 57.4075
74.1800 45.3666
74.1900 50.4526
74.2000 46.3068
74.2100 41.6819
74.2200 43.3873
74.2300 54.3215
74.2400 47.1843
74.2500 50.2654
74.2600 43.7640
74.2700 53.2917
74.2800 53.3201
74.2900 43.0882
74.3000 49.0477
74.3100 55.4942
74.3200 42.1775
74.3300 43.2483
74.3400 42.6516
74.3500 64.4972
74.3600 49.4084
74.3700 55.5505
74.3800 37.9964
74.3900 48.3379
74.4000 44.3208
74.4100 44.0423
74.4200 48.2260
74.4300 50.5185
74.4400 56.1216
74.4500 51.7831
74.4600 52.7447
74.4700 51.2886
74.4800 46.9552
74.4900 49.5497
74.5000 63.4842
74.5100 38.9991
74.5200 43.4856
74.5300 47.6991
74.5400 51.9348
74.5500 52.6625
74.5600 60.0456
74.5700 65.2153
74.5800 66.3274
74.5900 47.8886
74.6000 50.7057
74.6100 47.7224
74.6200 39.2056
74.6300 40.5592
74.6400 46.8779
74.6500 49.9746
74.6600 42.4578
74.6700 50.1456
74.6800 51.4669
74.6900 52.2062
74.7000 39.2576
74.7100 54.7217
74.7200 48.0147
74.7300 48.5412
74.7400 48.7303
74.7500 50.0471
74.7600 43.9329
74.7700 38.6022
74.7800 50.7917
74.7900 51.2872
74.8000 43.7595
74.8100 47.7923
74.8200 49.4578
74.8300 52.8491
74.8400 52.3437
74.8500 60.7732
74.8600 49.5886
74.8700 51.5081
74.8800 53.2596
74.8900 49.7913
74.9000 45.0399
74.9100 49.7137
74.9200 61.2090
74.9300 49.6450
74.9400 40.5703
74.9500 46.9055
74.9600 54.0606
74.9700 48.4785
74.9800 42.1995
74.9900 45.6844
75.0000 35.4492
75.0100 56.9285
75.0200 46.3168
75.0300 42.0068
75.0400 40.8446
75.0500 42.9294
75.0600 41.8295
75.0700 48.5517
75.0800 37.6011
75.0900 42.5275
75.1000 55.8133
75.1100 52.0584
75.1200 40.8019
75.1300 43.8510
75.1400 50.3790
75.1500 45.5663
75.1600 45.5747
75.1700 45.2438
75.1800 52.8263
75.1900 52.9134
75.2000 55.6190
75.2100 55.5383
75.2200 50.8625
75.2300 42.3992
75.2400 57.4838
75.2500 42.9560
75.2600 44.8671
75.2700 50.8332
75.2800 43.8071
75.2900 54.6153
75.3000 44.5566
75.3100 51.5378
75.3200 42.4547
75.3300 56.7575
75.3400 57.0829
75.3500 45.4909
75.3600 36.0447
75.3700 42.2436
75.3800 47.4232
75.3900 43.1004
75.4000 37.3757
75.4100 47.7181
75.4200 45.1632
75.4300 47.1177
75.4400 55.9346
75.4500 52.1365
75.4600 53.3705
75.4700 45.9512
75.4800 40.6417
75.4900 50.1461
75.5000 51.1543
75.5100 54.2441
75.5200 50.8141
75.5300 44.2215
75.5400 43.1575
75.5500 48.3084
75.5600 50.0694
75.5700 49.8751
75.5800 53.6151
75.5900 36.8937
75.6000 44.5901
75.6100 50.1077
75.6200 47.3727
75.6300 48.9520
75.6400 38.3729
75.6500 47.8359
75.6600 52.5990
75.6700 54.1389
75.6800 42.2024
75.6900 50.5729
75.7000 35.2693
75.7100 44.2250
75.7200 46.7703
75.7300 50.6432
75.7400 53.9342
75.7500 47.7262
75.7600 51.4340
75.7700 43.2093
75.7800 44.1875
75.7900 49.0436
75.8000 50.2380
75.8100 59.3245
75.8200 50.9297
75.8300 39.2029
75.8400 37.3174
75.8500 49.7019
75.8600 40.6002
75.8700 43.5552
75.8800 51.3518
75.8900 59.9241
75.9000 44.8380
75.9100 56.5135
75.9200 56.8919
75.9300 52.7042
75.9400 57.2442
75.9500 51.6595
75.9600 43.1519
75.9700 43.8443
75.9800 43.4839
75.9900 45.0756
76.0000 39.7777
76.0100 51.1317
76.0200 48.5568
76.0300 50.0928
76.0400 45.9501
76.0500 44.4204
76.0600 43.5232
76.0700 43.3802
76.0800 36.9928
76.0900 51.7876
76.1000 46.6283
76.1100 46.2185
76.1200 37.9025
76.1300 45.7984
76.1400 52.1728
76.1500 46.8670
76.1600 48.9005
76.1700 46.9002
76.1800 45.7980
76.1900 43.2453
76.2000 45.4173
76.2100 37.9771
76.2200 47.7976
76.2300 43.6688
76.2400 38.7739
76.2500 50.0699
76.2600 39.2419
76.2700 59.4724
76.2800 44.8172
76.2900 39.0872
76.3000 56.0609
76.3100 36.8353
76.3200 42.2419
76.3300 47.1653
76.3400 50.4747
76.3500 62.1281
76.3600 46.6164
76.3700 46.6273
76.3800 62.1405
76.3900 34.3914
76.4000 51.1927
76.4100 60.6033
76.4200 51.9701
76.4300 54.3816
76.4400 45.9226
76.4500 45.2679
76.4600 54.7938
76.4700 43.0231
76.4800 53.8812
76.4900 58.9598
76.5000 57.1190
76.5100 42.6516
76.5200 48.1476
76.5300 53.2963
76.5400 47.9387
76.5500 50.4805
76.5600 48.8975
76.5700 49.1748
76.5800 62.4172
76.5900 41.7051
76.6000 56.4896
76.6100 44.9264
76.6200 45.8355
76.6300 59.6545
76.6400 47.0461
76.6500 39.2210
76.6600 48.0536
76.6700 42.7585
76.6800 42.9592
76.6900 42.7867
76.7000 48.2631
76.7100 44.5128
76.7200 49.5792
76.7300 50.5553
76.7400 52.7137
76.7500 59.9146
76.7600 36.1780
76.7700 47.9840
76.7800 45.8183
76.7900 52.9252
76.8000 53.7911
76.8100 43.9891
76.8200 49.3711
76.8300 55.2342
76.8400 49.6317
76.8500 49.1998
76.8600 42.8614
76.8700 37.9975
76.8800 49.8586
76.8900 48.3896
76.9000 51.4419
76.9100 43.8745
76.9200 48.5693
76.9300 46.0364
76.9400 50.5175
76.9500 48.8165
76.9600 51.4065
76.9700 53.3559
76.9800 48.3359
76.9900 44.0856
77.0000 54.8277
77.0100 55.5963
77.0200 45.8212
77.0300 48.6868
77.0400 50.6209
77.0500 44.3270
77.0600 55.2171
77.0700 45.4419
77.0800 51.2515
77.0900 50.6464
77.1000 48.8697
77.1100 36.5256
77.1200 39.1991
77.1300 55.2613
77.1400 48.3966
77.1500 51.5352
77.1600 48.2616
77.1700 51.5173
77.1800 43.5072
77.1900 47.1757
77.2000 41.4143
77.2100 40.9009
77.2200 53.6453
77.2300 57.5307
77.2400 41.9564
77.2500 47.2774
77.2600 50.5943
77.2700 56.7183
77.2800 49.6644
77.2900 47.9753
77.3000 47.0749
77.3100 46.6187
77.3200 64.4448
77.3300 47.8358
77.3400 41.0164
77.3500 46.0862
77.3600 44.7404
77.3700 45.5865
77.3800 49.8221
77.3900 55.6589
77.4000 49.0858
77.4100 47.6808
77.4200 51.9683
77.4300 57.4744
77.4400 51.9388
77.4500 31.3532
77.4600 53.6367
77.4700 52.3859
77.4800 53.1710
77.4900 44.9777
77.5000 47.8473
77.5100 49.9279
77.5200 41.9556
77.5300 32.5587
77.5400 39.0511
77.5500 52.5211
77.5600 44.4952
77.5700 52.3754
77.5800 41.9676
77.5900 41.6399
77.6000 51.0147
77.6100 47.1198
77.6200 50.4882
77.6300 53.2884
77.6400 46.6653
77.6500 43.5184
77.6600 44.7658
77.6700 53.9570
77.6800 48.5035
77.6900 41.3022
77.7000 44.1376
77.7100 34.6491
77.7200 45.9459
77.7300 45.1037
77.7400 54.5276
77.7500 51.3842
77.7600 45.7230
77.7700 55.8969
77.7800 64.4493
77.7900 48.3318
77.8000 44.4879
77.8100 53.9694
77.8200 50.9131
77.8300 49.6012
77.8400 52.0251
77.8500 40.6203
77.8600 48.3036
77.8700 51.1131
77.8800 41.0060
77.8900 57.5107
77.9000 54.7919
77.9100 48.5487
77.9200 55.3052
77.9300 41.5987
77.9400 45.7083
77.9500 42.8396
77.9600 51.7110
77.9700 52.4478
77.9800 37.4740
77.9900 48.3813
78.0000 47.0411
78.0100 51.6839
78.0200 53.8927
78.0300 49.8877
78.0400 52.9254
78.0500 56.3818
78.0600 43.6443
78.0700 54.0884
78.0800 41.6129
78.0900 47.5299
78.1000 46.2787
78.1100 44.4195
78.1200 52.7801
78.1300 54.3545
78.1400 52.3155
78.1500 50.3439
78.1600 39.5577
78.1700 42.3192
78.1800 38.5962
78.1900 39.3636
78.2000 53.8236
78.2100 51.6675
78.2200 49.0491
78.2300 45.6985
78.2400 48.4199
78.2500 51.4579
78.2600 57.8255
78.2700 53.7742
78.2800 49.0523
78.2900 38.2441
78.3000 43.2804
78.3100 47.8661
78.3200 50.8860
78.3300 40.2324
78.3400 40.1153
78.3500 44.7092
78.3600 55.6433
78.3700 49.6624
78.3800 43.2634
78.3900 45.5507
78.4000 44.2680
78.4100 49.4092
78.4200 52.6316
78.4300 48.8671
78.4400 54.7806
78.4500 38.2034
78.4600 46.9304
78.4700 45.5304
78.4800 50.7629
78.4900 35.9700
78.5000 42.4504
78.5100 51.7843
78.5200 37.9723
78.5300 47.8212
78.5400 45.2042
78.5500 43.1825
78.5600 41.5593
78.5700 45.2034
78.5800 48.3571
78.5900 48.7872
78.6000 45.2120
78.6100 52.0281
78.6200 54.2394
78.6300 44.1660
78.6400 45.5473
78.6500 55.1079
78.6600 48.5011
78.6700 52.0961
78.6800 55.6665
78.6900 42.4341
78.7000 44.1393
78.7100 55.1287
78.7200 53.0631
78.7300 43.9265
78.7400 42.8442
78.7500 45.1881
78.7600 49.0353
78.7700 59.1398
78.7800 46.8619
78.7900 59.8473
78.8000 44.6894
78.8100 46.7007
78.8200 37.2532
78.8300 53.4043
78.8400 62.5154
78.8500 45.8871
78.8600 41.0373
78.8700 42.1560
78.8800 53.4246
78.8900 62.6015
78.9000 53.5747
78.9100 37.1172
78.9200 61.3901
78.9300 34.6452
78.9400 47.1496
78.9500 45.7000
78.9600 44.9417
78.9700 41.7761
78.9800 46.9549
78.9900 54.7311
79.0000 54.1397
79.0100 62.2568
79.0200 52.9322
79.0300 57.7080
79.0400 52.6736
79.0500 47.1829
79.0600 51.3179
79.0700 51.5083
79.0800 37.6623
79.0900 55.2207
79.1000 46.7673
79.1100 52.1404
79.1200 55.7254
79.1300 54.6615
79.1400 52.9769
79.1500 48.1699
79.1600 54.3540
79.1700 47.7646
79.1800 42.0489
79.1900 46.7644
79.2000 47.0647
79.2100 51.4589
79.2200 56.3361
79.2300 35.6498
79.2400 52.9696
79.2500 57.6470
79.2600 48.6582
79.2700 51.1959
79.2800 55.4274
79.2900 52.8445
79.3000 51.5147
79.3100 49.7749
79.3200 52.2999
79.3300 46.3371
79.3400 40.2993
79.3500 37.4131
79.3600 62.0343
79.3700 51.9126
79.3800 49.7108
79.3900 44.0705
79.4000 59.1540
79.4100 51.5472
79.4200 51.2894
79.4300 44.1267
79.4400 49.1656
79.4500 50.4148
79.4600 39.7078
79.4700 37.2044
79.4800 44.7895
79.4900 45.0083
79.5000 42.6128
79.5100 55.0439
79.5200 59.0823
79.5300 57.2828
79.5400 53.6329
79.5500 48.8811
79.5600 61.4560
79.5700 63.5452
79.5800 54.3665
79.5900 48.4468
79.6000 46.5617
79.6100 52.8091
79.6200 58.8822
79.6300 52.2176
79.6400 49.7523
79.6500 41.4715
79.6600 51.7872
79.6700 54.2046
79.6800 60.9749
79.6900 40.8620
79.7000 46.3635
79.7100 45.7328
79.7200 48.0134
79.7300 38.4718
79.7400 43.0839
79.7500 51.7093
79.7600 47.2452
79.7700 46.6962
79.7800 36.9406
79.7900 56.8973
79.8000 47.0177
79.8100 42.5509
79.8200 49.8676
79.8300 50.0487
79.8400 46.8810
79.8500 53.0072
79.8600 46.5586
79.8700 53.2458
79.8800 46.7505
79.8900 57.7400
79.9000 40.7097
79.9100 54.6898
79.9200 35.4554
79.9300 53.9508
79.9400 49.4697
79.9500 49.0822
79.9600 62.8673
79.9700 50.8734
79.9800 53.1472
79.9900 44.3864
80.0000 45.0157
80.0100 50.4334
80.0200 55.3619
80.0300 54.5739
80.0400 50.9870
80.0500 56.7734
80.0600 51.6160
80.0700 55.2641
80.0800 55.5097
80.0900 42.4952
80.1000 47.5352
80.1100 54.9407
80.1200 57.4275
80.1300 50.7393
80.1400 62.6155
80.1500 48.0384
80.1600 38.7227
80.1700 49.4453
80.1800 60.1434
80.1900 43.6381
80.2000 56.2803
80.2100 38.7285
80.2200 50.1439
80.2300 48.6631
80.2400 57.6704
80.2500 52.8555
80.2600 50.9851
80.2700 54.8273
80.2800 46.4685
80.2900 49.1258
80.3000 57.4903
80.3100 61.0324
80.3200 52.0789
80.3300 45.1491
80.3400 50.3447
80.3500 55.6821
80.3600 52.0506
80.3700 48.7865
80.3800 64.3075
80.3900 46.3478
80.4000 45.0803
80.4100 43.8525
80.4200 50.4592
80.4300 59.8194
80.4400 43.7299
80.4500 57.3330
80.4600 52.2589
80.4700 55.9015
80.4800 49.4539
80.4900 63.8598
80.5000 48.1285
80.5100 46.4752
80.5200 54.7338
80.5300 50.2281
80.5400 53.4300
80.5500 43.1470
80.5600 51.7710
80.5700 51.6825
80.5800 58.9564
80.5900 51.2453
80.6000 54.8007
80.6100 50.4918
80.6200 54.5299
80.6300 66.3495
80.6400 68.3567
80.6500 49.5042
80.6600 52.5812
80.6700 58.4786
80.6800 57.2112
80.6900 54.9137
80.7000 53.7478
80.7100 48.2491
80.7200 53.9294
80.7300 48.6046
80.7400 52.8767
80.7500 71.7583
80.7600 50.7047
80.7700 55.3406
80.7800 60.9517
80.7900 52.9674
80.8000 58.2054
80.8100 60.1390
80.8200 54.9466
80.8300 59.1739
80.8400 54.3667
80.8500 60.9074
80.8600 58.6887
80.8700 52.7858
80.8800 58.9816
80.8900 51.0166
80.9000 45.4355
80.9100 56.8146
80.9200 50.6438
80.9300 43.8495
80.9400 56.3393
80.9500 44.7429
80.9600 52.8447
80.9700 60.1395
80.9800 59.5755
80.9900 41.4583
81.0000 47.1953
81.0100 46.1702
81.0200 61.5162
81.0300 41.3109
81.0400 45.6724
81.0500 62.0034
81.0600 64.4195
81.0700 46.5195
81.0800 50.1948
81.0900 42.7134
81.1000 51.0750
81.1100 51.1126
81.1200 55.8703
81.1300 51.6334
81.1400 66.7521
81.1500 47.9616
81.1600 42.3651
81.1700 50.6601
81.1800 56.1865
81.1900 47.4702
81.2000 58.1942
81.2100 69.5498
81.2200 53.4367
81.2300 40.3042
81.2400 45.9554
81.2500 63.5416
81.2600 45.7644
81.2700 57.9748
81.2800 52.7456
81.2900 57.9378
81.3000 49.6039
81.3100 52.7818
81.3200 54.3055
81.3300 51.0380
81.3400 54.1278
81.3500 45.1653
81.3600 59.1558
81.3700 58.5674
81.3800 56.6970
81.3900 50.4599
81.4000 49.2931
81.4100 51.3178
81.4200 50.9298
81.4300 42.4394
81.4400 52.5251
81.4500 57.7143
81.4600 51.2283
81.4700 59.6926
81.4800 61.3428
81.4900 48.5237
81.5000 51.2634
81.5100 46.9756
81.5200 43.8238
81.5300 56.9455
81.5400 51.7211
81.5500 54.9754
81.5600 44.8929
81.5700 65.9862
81.5800 59.0736
81.5900 51.6170
81.6000 42.4618
81.6100 47.8657
81.6200 46.6604
81.6300 46.5029
81.6400 60.0430
81.6500 46.8233
81.6600 54.5213
81.6700 55.7074
81.6800 47.5338
81.6900 46.9136
81.7000 53.1650
81.7100 47.2100
81.7200 49.0653
81.7300 55.3311
81.7400 51.3137
81.7500 49.0852
81.7600 41.0903
81.7700 50.0560
81.7800 54.1905
81.7900 45.8507
81.8000 50.8780
81.8100 60.0778
81.8200 43.1923
81.8300 62.0522
81.8400 47.6192
81.8500 52.7379
81.8600 45.6585
81.8700 49.1057
81.8800 56.6240
81.8900 63.9851
81.9000 46.5944
81.9100 69.6758
81.9200 51.4968
81.9300 57.7387
81.9400 54.0539
81.9500 53.1973
81.9600 60.8818
81.9700 56.4368
81.9800 39.2172
81.9900 58.0969
82.0000 49.8026
82.0100 57.6945
82.0200 43.9304
82.0300 46.8730
82.0400 51.3566
82.0500 57.1059
82.0600 45.0352
82.0700 44.7640
82.0800 61.2845
82.0900 49.9834
82.1000 44.6527
82.1100 41.3155
82.1200 49.2731
82.1300 51.4506
82.1400 64.7137
82.1500 42.3602
82.1600 53.1031
82.1700 51.8507
82.1800 59.6942
82.1900 50.7809
82.2000 50.7290
82.2100 51.9373
82.2200 57.9743
82.2300 62.4896
82.2400 59.3379
82.2500 52.2826
82.2600 46.2294
82.2700 42.4309
82.2800 55.6612
82.2900 48.6444
82.3000 61.5076
82.3100 60.9464
82.3200 60.7541
82.3300 55.6350
82.3400 44.1819
82.3500 56.0441
82.3600 41.8967
82.3700 53.9134
82.3800 52.5213
82.3900 46.4660
82.4000 56.9804
82.4100 65.4726
82.4200 48.9511
82.4300 52.9125
82.4400 43.9121
82.4500 50.0808
82.4600 47.4478
82.4700 44.6264
82.4800 42.3469
82.4900 56.3612
82.5000 57.2340
82.5100 48.4373
82.5200 71.4086
82.5300 48.4345
82.5400 42.6816
82.5500 54.7557
82.5600 56.2957
82.5700 50.6949
82.5800 47.4118
82.5900 54.2379
82.6000 44.7977
82.6100 54.4531
82.6200 54.5437
82.6300 54.8627
82.6400 49.9392
82.6500 59.9767
82.6600 58.8436
82.6700 56.8541
82.6800 57.0846
82.6900 50.8052
82.7000 46.1384
82.7100 47.7924
82.7200 50.3428
82.7300 45.1410
82.7400 47.8513
82.7500 48.4577
82.7600 44.4959
82.7700 51.9389
82.7800 56.3017
82.7900 64.2275
82.8000 50.9061
82.8100 49.6215
82.8200 49.9318
82.8300 49.0172
82.8400 56.0219
82.8500 57.0142
82.8600 52.5732
82.8700 48.2318
82.8800 56.5877
82.8900 56.7492
82.9000 42.1132
82.9100 45.7827
82.9200 48.9008
82.9300 49.1643
82.9400 37.0391
82.9500 46.6736
82.9600 62.9323
82.9700 52.5317
82.9800 57.9689
82.9900 47.8644
83.0000 54.0046
83.0100 51.1765
83.0200 56.8498
83.0300 57.4092
83.0400 53.9285
83.0500 70.4600
83.0600 41.2300
83.0700 56.4327
83.0800 63.6074
83.0900 49.4036
83.1000 53.7168
83.1100 56.6589
83.1200 55.1753
83.1300 64.8507
83.1400 47.4500
83.1500 52.5956
83.1600 54.7355
83.1700 36.4559
83.1800 50.4902
83.1900 40.7251
83.2000 45.5017
83.2100 44.2306
83.2200 43.3831
83.2300 49.5826
83.2400 48.0284
83.2500 51.3732
83.2600 44.0436
83.2700 45.1232
83.2800 51.7953
83.2900 52.5681
83.3000 56.6117
83.3100 46.3664
83.3200 53.5420
83.3300 53.0607
83.3400 55.1578
83.3500 50.1758
83.3600 45.2590
83.3700 48.7716
83.3800 55.4508
83.3900 59.0513
83.4000 55.1215
83.4100 51.5785
83.4200 47.6854
83.4300 47.4823
83.4400 51.8219
83.4500 42.4794
83.4600 44.5369
83.4700 48.4870
83.4800 46.9096
83.4900 39.3911
83.5000 39.9041
83.5100 42.5847
83.5200 42.7823
83.5300 62.0081
83.5400 60.2417
83.5500 51.5597
83.5600 52.6130
83.5700 46.4072
83.5800 50.9530
83.5900 57.1397
83.6000 59.0095
83.6100 54.6015
83.6200 57.5434
83.6300 43.5932
83.6400 48.9706
83.6500 54.9757
83.6600 67.7592
83.6700 52.7745
83.6800 56.7355
83.6900 52.6437
83.7000 52.6313
83.7100 61.6003
83.7200 47.7358
83.7300 53.1557
83.7400 54.0351
83.7500 65.2929
83.7600 48.8615
83.7700 52.3615
83.7800 49.9512
83.7900 55.4840
83.8000 43.9922
83.8100 50.7490
83.8200 48.2006
83.8300 48.8029
83.8400 42.0653
83.8500 50.8044
83.8600 50.3672
83.8700 52.9131
83.8800 59.2018
83.8900 64.1719
83.9000 59.4114
83.9100 58.0130
83.9200 49.8932
83.9300 56.7738
83.9400 54.6310
83.9500 60.6121
83.9600 47.9375
83.9700 50.4862
83.9800 46.7041
83.9900 49.7687
84.0000 52.0806
84.0100 64.3054
84.0200 40.0819
84.0300 58.2122
84.0400 58.5462
84.0500 44.9290
84.0600 48.1805
84.0700 48.4864
84.0800 51.6889
84.0900 54.3624
84.1000 51.2289
84.1100 55.2845
84.1200 40.9605
84.1300 42.9444
84.1400 38.4562
84.1500 51.1164
84.1600 67.3208
84.1700 60.7533
84.1800 47.2847
84.1900 49.0218
84.2000 45.6614
84.2100 44.4052
84.2200 39.9275
84.2300 49.1285
84.2400 53.1230
84.2500 49.5572
84.2600 55.7032
84.2700 54.4350
84.2800 61.4350
84.2900 48.1915
84.3000 49.5198
84.3100 60.4538
84.3200 59.2540
84.3300 54.9312
84.3400 54.9540
84.3500 46.1439
84.3600 49.6163
84.3700 47.8404
84.3800 52.6387
84.3900 51.8226
84.4000 51.4215
84.4100 49.9992
84.4200 59.3743
84.4300 49.3187
84.4400 50.4126
84.4500 51.7427
84.4600 51.5318
84.4700 44.8472
84.4800 64.7201
84.4900 52.8367
84.5000 54.3877
84.5100 52.4773
84.5200 54.1079
84.5300 50.6423
84.5400 47.2947
84.5500 48.5467
84.5600 64.9027
84.5700 44.0728
84.5800 44.9765
84.5900 61.5653
84.6000 53.5630
84.6100 48.7109
84.6200 49.0699
84.6300 43.2033
84.6400 41.0238
84.6500 38.2231
84.6600 43.7918
84.6700 49.7926
84.6800 51.2807
84.6900 43.8383
84.7000 49.9417
84.7100 43.8021
84.7200 48.8216
84.7300 60.9748
84.7400 42.0277
84.7500 42.3950
84.7600 46.5091
84.7700 52.9917
84.7800 62.8003
84.7900 34.4220
84.8000 30.7203
84.8100 50.4472
84.8200 46.0534
84.8300 49.8651
84.8400 58.5225
84.8500 54.2051
84.8600 53.1287
84.8700 54.1751
84.8800 48.0520
84.8900 56.9537
84.9000 53.3977
84.9100 57.9759
84.9200 53.8702
84.9300 52.4043
84.9400 54.1902
84.9500 47.8074
84.9600 50.5481
84.9700 45.9455
84.9800 46.8904
84.9900 51.4901
85.0000 52.1095
85.0100 46.3127
85.0200 50.9773
85.0300 45.7346
85.0400 51.1622
85.0500 40.7998
85.0600 45.1822
85.0700 55.8560
85.0800 41.1351
85.0900 44.4221
85.1000 48.9043
85.1100 44.3174
85.1200 51.7172
85.1300 42.8387
85.1400 52.5488
85.1500 49.1615
85.1600 56.5318
85.1700 48.0947
85.1800 51.3168
85.1900 48.7353
85.2000 50.1490
85.2100 57.4194
85.2200 51.5577
85.2300 47.4636
85.2400 47.5751
85.2500 51.3800
85.2600 54.5323
85.2700 48.1308
85.2800 49.8667
85.2900 53.6394
85.3000 52.7085
85.3100 46.3982
85.3200 60.4302
85.3300 59.4211
85.3400 52.6283
85.3500 49.7206
85.3600 47.4784
85.3700 45.8655
85.3800 51.8902
85.3900 43.6216
85.4000 61.4813
85.4100 47.5067
85.4200 47.7270
85.4300 54.6627
85.4400 54.0755
85.4500 47.0555
85.4600 46.0748
85.4700 41.0042
85.4800 38.3036
85.4900 46.5754
85.5000 35.0425
85.5100 45.3682
85.5200 51.5224
85.5300 44.7813
85.5400 40.6921
85.5500 47.3578
85.5600 41.9224
85.5700 47.2291
85.5800 42.5109
85.5900 48.0606
85.6000 51.8628
85.6100 62.4846
85.6200 46.7737
85.6300 55.0559
85.6400 50.6687
85.6500 49.9933
85.6600 49.6083
85.6700 62.8123
85.6800 57.3546
85.6900 54.1209
85.7000 48.0762
85.7100 59.3341
85.7200 57.1290
85.7300 33.9582
85.7400 44.8597
85.7500 47.4126
85.7600 51.2916
85.7700 43.6775
85.7800 50.0466
85.7900 47.3315
85.8000 53.6117
85.8100 46.0821
85.8200 44.1096
85.8300 52.7191
85.8400 43.8139
85.8500 40.7027
85.8600 39.9202
85.8700 32.7142
85.8800 49.3989
85.8900 48.1114
85.9000 44.6970
85.9100 38.7210
85.9200 60.3328
85.9300 52.7256
85.9400 47.1971
85.9500 56.1735
85.9600 31.8592
85.9700 42.8787
85.9800 52.3348
85.9900 50.4237
86.0000 42.0899
86.0100 42.3362
86.0200 46.5095
86.0300 57.3439
86.0400 48.6025
86.0500 54.0712
86.0600 56.4002
86.0700 55.3465
86.0800 49.8940
86.0900 50.4474
86.1000 45.5222
86.1100 44.7367
86.1200 37.0820
86.1300 54.9450
86.1400 33.9795
86.1500 41.6079
86.1600 47.2032
86.1700 52.1156
86.1800 57.4545
86.1900 38.4402
86.2000 50.2106
86.2100 54.2537
86.2200 50.5564
86.2300 56.8803
86.2400 60.9878
86.2500 40.3636
86.2600 40.5307
86.2700 56.5516
86.2800 42.1497
86.2900 47.5174
86.3000 57.1312
86.3100 57.9032
86.3200 43.4231
86.3300 47.8613
86.3400 47.6813
86.3500 45.2016
86.3600 55.1033
86.3700 45.3685
86.3800 56.4038
86.3900 52.1258
86.4000 56.5746
86.4100 42.8420
86.4200 36.9831
86.4300 41.1657
86.4400 45.9701
86.4500 28.2069
86.4600 55.3946
86.4700 44.9134
86.4800 40.2613
86.4900 48.4079
86.5000 43.2555
86.5100 52.4269
86.5200 47.4212
86.5300 53.5166
86.5400 48.7653
86.5500 54.8098
86.5600 38.9651
86.5700 56.1164
86.5800 40.5943
86.5900 44.1760
86.6000 55.9827
86.6100 51.9734
86.6200 59.0414
86.6300 44.8846
86.6400 41.4853
86.6500 47.1917
86.6600 38.8172
86.6700 32.5117
86.6800 45.0374
86.6900 49.6890
86.7000 43.3515
86.7100 42.4041
86.7200 60.4028
86.7300 44.4745
86.7400 42.7136
86.7500 49.7048
86.7600 55.8001
86.7700 46.4543
86.7800 58.0741
86.7900 58.3409
86.8000 50.4445
86.8100 43.9920
86.8200 49.8088
86.8300 59.5294
86.8400 59.3162
86.8500 48.6533
86.8600 47.4990
86.8700 54.4809
86.8800 49.2624
86.8900 43.9020
86.9000 53.3683
86.9100 47.7886
86.9200 35.1484
86.9300 50.2823
86.9400 46.0108
86.9500 45.2869
86.9600 51.2973
86.9700 45.3004
86.9800 44.6201
86.9900 48.6258
87.0000 46.2441
87.0100 53.4643
87.0200 53.2717
87.0300 47.4125
87.0400 49.8947
87.0500 61.5101
87.0600 44.7787
87.0700 58.2687
87.0800 48.3004
87.0900 45.8869
87.1000 44.8637
87.1100 46.6011
87.1200 47.8101
87.1300 38.9377
87.1400 44.7156
87.1500 44.4991
87.1600 47.1168
87.1700 44.5386
87.1800 58.4368
87.1900 49.2774
87.2000 47.2117
87.2100 45.1803
87.2200 43.4366
87.2300 45.6176
87.2400 48.1170
87.2500 51.1214
87.2600 50.5983
87.2700 50.2008
87.2800 37.5148
87.2900 43.3152
87.3000 42.2586
87.3100 48.0392
87.3200 42.9205
87.3300 56.8704
87.3400 45.9200
87.3500 49.1722
87.3600 50.5071
87.3700 51.9761
87.3800 57.5929
87.3900 53.2026
87.4000 42.7262
87.4100 49.4698
87.4200 60.7903
87.4300 47.5760
87.4400 47.8819
87.4500 37.2585
87.4600 38.6002
87.4700 39.5039
87.4800 46.4513
87.4900 56.9781
87.5000 51.1001
87.5100 57.1080
87.5200 48.1518
87.5300 52.7787
87.5400 45.9830
87.5500 40.9405
87.5600 44.6512
87.5700 46.2272
87.5800 46.7942
87.5900 47.8134
87.6000 49.5928
87.6100 60.0624
87.6200 41.0735
87.6300 45.5467
87.6400 49.5040
87.6500 43.4538
87.6600 41.3382
87.6700 55.8937
87.6800 46.7781
87.6900 48.8238
87.7000 49.8557
87.7100 51.9900
87.7200 52.2037
87.7300 55.0439
87.7400 44.8053
87.7500 51.6353
87.7600 53.7177
87.7700 43.2894
87.7800 48.9677
87.7900 49.3240
87.8000 58.8467
87.8100 57.3416
87.8200 55.9418
87.8300 45.4819
87.8400 58.5355
87.8500 43.0189
87.8600 53.8033
87.8700 47.9888
87.8800 38.6554
87.8900 32.3358
87.9000 49.9715
87.9100 51.8593
87.9200 51.5583
87.9300 53.0645
87.9400 58.8228
87.9500 47.9759
87.9600 53.2744
87.9700 48.5705
87.9800 49.0255
87.9900 49.2989
88.0000 49.3605
88.0100 47.7508
88.0200 50.8262
88.0300 46.9648
88.0400 42.1085
88.0500 61.6294
88.0600 47.4085
88.0700 46.0735
88.0800 45.7711
88.0900 46.1528
88.1000 45.7212
88.1100 54.3623
88.1200 48.3332
88.1300 41.8815
88.1400 38.6500
88.1500 41.1297
88.1600 54.0949
88.1700 52.7168
88.1800 51.3315
88.1900 56.4581
88.2000 40.4285
88.2100 50.7599
88.2200 56.6182
88.2300 61.6325
88.2400 47.6498
88.2500 45.2384
88.2600 54.5180
88.2700 52.2544
88.2800 52.0713
88.2900 43.4658
88.3000 44.3627
88.3100 61.8674
88.3200 43.6384
88.3300 45.7328
88.3400 38.1634
88.3500 43.7723
88.3600 52.2611
88.3700 58.0922
88.3800 53.0828
88.3900 46.4910
88.4000 42.3323
88.4100 54.5065
88.4200 57.6819
88.4300 56.1589
88.4400 45.1444
88.4500 57.3454
88.4600 56.1152
88.4700 41.5467
88.4800 45.8372
88.4900 51.6268
88.5000 42.3877
88.5100 46.4157
88.5200 50.6987
88.5300 41.9583
88.5400 44.7377
88.5500 47.0784
88.5600 52.0801
88.5700 41.7283
88.5800 57.8601
88.5900 52.4598
88.6000 53.3893
88.6100 58.2340
88.6200 44.7238
88.6300 40.7993
88.6400 45.8103
88.6500 43.0126
88.6600 55.2528
88.6700 46.7872
88.6800 52.9206
88.6900 44.2765
88.7000 45.8117
88.7100 57.6536
88.7200 50.8317
88.7300 57.2535
88.7400 51.8930
88.7500 50.4703
88.7600 53.1246
88.7700 49.8237
88.7800 56.3164
88.7900 39.2929
88.8000 55.6077
88.8100 44.6962
88.8200 49.3399
88.8300 44.1055
88.8400 41.6570
88.8500 47.4936
88.8600 36.8568
88.8700 49.8942
88.8800 56.6295
88.8900 41.4028
88.9000 49.3892
88.9100 48.9873
88.9200 51.1752
88.9300 40.7801
88.9400 47.2478
88.9500 45.7303
88.9600 50.4446
88.9700 44.2432
88.9800 40.1114
88.9900 42.9435
89.0000 56.5724
89.0100 43.8982
89.0200 40.4833
89.0300 50.3577
89.0400 41.4533
89.0500 52.8446
89.0600 62.8215
89.0700 51.2451
89.0800 45.6662
89.0900 52.6069
89.1000 58.1075
89.1100 54.9836
89.1200 42.4990
89.1300 51.8969
89.1400 44.5936
89.1500 45.1581
89.1600 48.9551
89.1700 48.7407
89.1800 52.0868
89.1900 41.7049
89.2000 60.0570
89.2100 50.0118
89.2200 58.1566
89.2300 32.6901
89.2400 52.2570
89.2500 45.7255
89.2600 45.5064
89.2700 56.0176
89.2800 44.5315
89.2900 36.9154
89.3000 44.6523
89.3100 43.8644
89.3200 51.6407
89.3300 60.4492
89.3400 41.0522
89.3500 40.1763
89.3600 62.1925
89.3700 58.2732
89.3800 54.7164
89.3900 45.9446
89.4000 50.4520
89.4100 52.4523
89.4200 47.7923
89.4300 51.2862
89.4400 50.1178
89.4500 37.6230
89.4600 45.9269
89.4700 58.4800
89.4800 43.0091
89.4900 59.4092
89.5000 46.3467
89.5100 57.0364
89.5200 57.8995
89.5300 48.9142
89.5400 49.5855
89.5500 49.4117
89.5600 60.8262
89.5700 43.0834
89.5800 37.8344
89.5900 32.0775
89.6000 37.0892
89.6100 42.6971
89.6200 46.8515
89.6300 39.3419
89.6400 50.8570
89.6500 52.3189
89.6600 43.8562
89.6700 49.4216
89.6800 54.0441
89.6900 59.9718
89.7000 50.9188
89.7100 43.7553
89.7200 39.2084
89.7300 52.1927
89.7400 53.8363
89.7500 43.9919
89.7600 47.7895
89.7700 59.1111
89.7800 62.4667
89.7900 55.3876
89.8000 50.9558
89.8100 50.9155
89.8200 50.9932
89.8300 46.9614
89.8400 49.6610
89.8500 60.2337
89.8600 45.2507
89.8700 46.8882
89.8800 56.4126
89.8900 46.7281
89.9000 50.5063
89.9100 44.6365
89.9200 42.0980
89.9300 54.4861
89.9400 45.4916
89.9500 46.6721
89.9600 43.2817
89.9700 39.6510
89.9800 51.2705
89.9900 44.3718
90.0000 55.5017
90.0100 47.6174
90.0200 62.1354
90.0300 44.9836
90.0400 56.8610
90.0500 52.8416
90.0600 38.1768
90.0700 59.1051
90.0800 58.4200
90.0900 46.7095
90.1000 58.8239
90.1100 52.0556
90.1200 47.8737
90.1300 52.8572
90.1400 50.3480
90.1500 50.4878
90.1600 52.0080
90.1700 45.9686
90.1800 46.5167
90.1900 50.0681
90.2000 57.6368
90.2100 46.3378
90.2200 42.9637
90.2300 47.9285
90.2400 47.4618
90.2500 57.5357
90.2600 50.0537
90.2700 44.6300
90.2800 44.3569
90.2900 50.3825
90.3000 47.7414
90.3100 42.5442
90.3200 51.0230
90.3300 52.4217
90.3400 52.3752
90.3500 53.1138
90.3600 47.2327
90.3700 46.4120
90.3800 36.5839
90.3900 49.5144
90.4000 41.8132
90.4100 47.5721
90.4200 59.5981
90.4300 51.7101
90.4400 43.6299
90.4500 44.4430
90.4600 42.4547
90.4700 42.6479
90.4800 55.0069
90.4900 52.8645
90.5000 55.4078
90.5100 48.5227
90.5200 42.9877
90.5300 47.1450
90.5400 54.6143
90.5500 36.7443
90.5600 39.5512
90.5700 49.8310
90.5800 57.9571
90.5900 41.9740
90.6000 50.0866
90.6100 50.6585
90.6200 54.3666
90.6300 48.3608
90.6400 44.5381
90.6500 52.4568
90.6600 40.7297
90.6700 44.3933
90.6800 50.5229
90.6900 52.8163
90.7000 45.7310
90.7100 42.9058
90.7200 59.6390
90.7300 64.8307
90.7400 53.3131
90.7500 46.0142
90.7600 42.9748
90.7700 42.5124
90.7800 39.0126
90.7900 34.2228
90.8000 60.0193
90.8100 44.9714
90.8200 40.7662
90.8300 43.7340
90.8400 47.5957
90.8500 43.5216
90.8600 59.7143
90.8700 46.5349
90.8800 47.8991
90.8900 46.2144
90.9000 44.8593
90.9100 48.6213
90.9200 46.9459
90.9300 50.5663
90.9400 52.6642
90.9500 46.7924
90.9600 47.2940
90.9700 50.8126
90.9800 55.3519
90.9900 59.6001
91.0000 53.8291
91.0100 51.6817
91.0200 59.4683
91.0300 49.3328
91.0400 46.0991
91.0500 37.4967
91.0600 39.4473
91.0700 57.7575
91.0800 53.4784
91.0900 43.2502
91.1000 55.8805
91.1100 66.5517
91.1200 52.9318
91.1300 48.9125
91.1400 49.8942
91.1500 48.8925
91.1600 43.0901
91.1700 47.5345
91.1800 49.7368
91.1900 55.6657
91.2000 50.9763
91.2100 50.9062
91.2200 35.2897
91.2300 54.8805
91.2400 59.5033
91.2500 46.7557
91.2600 43.4041
91.2700 52.9597
91.2800 58.7892
91.2900 50.5724
91.3000 47.3395
91.3100 39.8895
91.3200 41.0402
91.3300 49.1017
91.3400 62.8816
91.3500 46.0632
91.3600 52.6554
91.3700 47.0180
91.3800 42.3207
91.3900 50.1784
91.4000 42.1724
91.4100 47.8305
91.4200 53.9675
91.4300 48.6319
91.4400 52.1835
91.4500 55.3920
91.4600 55.0617
91.4700 58.0491
91.4800 56.1488
91.4900 50.3145
91.5000 56.6309
91.5100 52.5694
91.5200 61.0425
91.5300 45.3269
91.5400 53.1586
91.5500 60.0220
91.5600 55.4247
91.5700 61.6867
91.5800 51.1390
91.5900 52.1515
91.6000 51.4438
91.6100 49.0674
91.6200 54.2125
91.6300 55.3657
91.6400 68.9894
91.6500 45.1136
91.6600 52.8031
91.6700 58.7965
91.6800 47.4093
91.6900 47.4392
91.7000 47.5252
91.7100 44.7402
91.7200 46.1374
91.7300 41.3936
91.7400 47.2685
91.7500 47.6160
91.7600 41.2784
91.7700 49.4928
91.7800 60.1010
91.7900 50.7499
91.8000 54.9771
91.8100 56.8724
91.8200 57.9165
91.8300 52.7207
91.8400 45.7480
91.8500 52.6603
91.8600 38.6529
91.8700 45.1256
91.8800 40.9639
91.8900 46.9093
91.9000 63.6008
91.9100 45.6639
91.9200 45.1841
91.9300 42.1236
91.9400 56.8333
91.9500 56.7506
91.9600 55.2157
91.9700 64.2638
91.9800 45.8197
91.9900 53.0845
92.0000 51.7407
92.0100 47.3258
92.0200 44.3648
92.0300 48.9482
92.0400 53.3795
92.0500 44.8244
92.0600 61.0284
92.0700 31.5938
92.0800 46.3069
92.0900 49.5522
92.1000 48.8403
92.1100 53.7076
92.1200 60.1732
92.1300 45.3095
92.1400 42.5307
92.1500 43.0172
92.1600 39.7255
92.1700 48.4962
92.1800 52.0682
92.1900 54.7198
92.2000 57.0918
92.2100 43.2721
92.2200 51.7886
92.2300 43.7975
92.2400 42.3820
92.2500 42.0662
92.2600 57.8271
92.2700 58.5601
92.2800 64.3377
92.2900 55.2179
92.3000 62.7308
92.3100 60.3983
92.3200 46.1970
92.3300 39.5034
92.3400 42.2780
92.3500 52.5222
92.3600 44.6897
92.3700 38.7444
92.3800 48.6899
92.3900 46.5428
92.4000 53.1423
92.4100 51.6746
92.4200 54.6630
92.4300 42.6732
92.4400 55.3629
92.4500 58.9077
92.4600 49.3208
92.4700 47.1301
92.4800 53.7656
92.4900 51.9120
92.5000 42.1111
92.5100 55.9797
92.5200 49.2662
92.5300 44.6064
92.5400 52.0508
92.5500 51.8651
92.5600 54.7977
92.5700 36.7920
92.5800 50.8111
92.5900 51.7629
92.6000 55.6318
92.6100 45.2393
92.6200 39.3609
92.6300 43.5619
92.6400 46.9645
92.6500 50.9376
92.6600 43.6197
92.6700 53.2130
92.6800 61.4025
92.6900 51.9063
92.7000 43.1834
92.7100 61.0457
92.7200 45.8561
92.7300 58.6821
92.7400 64.3056
92.7500 51.2176
92.7600 54.7037
92.7700 55.1580
92.7800 48.0426
92.7900 54.1171
92.8000 49.2677
92.8100 47.8794
92.8200 45.3689
92.8300 59.6078
92.8400 53.9736
92.8500 51.4627
92.8600 46.4123
92.8700 48.6847
92.8800 54.6238
92.8900 51.6639
92.9000 46.2893
92.9100 45.9821
92.9200 52.9695
92.9300 54.6972
92.9400 46.6364
92.9500 43.5141
92.9600 61.5171
92.9700 42.6453
92.9800 48.4433
92.9900 58.1399
93.0000 55.3702
93.0100 48.9583
93.0200 43.9601
93.0300 45.6994
93.0400 37.5716
93.0500 67.1650
93.0600 54.7223
93.0700 52.7493
93.0800 51.0855
93.0900 46.7593
93.1000 51.8176
93.1100 51.3623
93.1200 41.6961
93.1300 50.0457
93.1400 51.1002
93.1500 48.7188
93.1600 54.0856
93.1700 47.1313
93.1800 50.8083
93.1900 49.3004
93.2000 45.6394
93.2100 45.5888
93.2200 52.7149
93.2300 42.0571
93.2400 47.7292
93.2500 38.7587
93.2600 46.8712
93.2700 51.5372
93.2800 43.5247
93.2900 48.1964
93.3000 36.2331
93.3100 42.4721
93.3200 41.6588
93.3300 51.3751
93.3400 43.6565
93.3500 51.8220
93.3600 39.8789
93.3700 43.9642
93.3800 42.8861
93.3900 48.1294
93.4000 41.8004
93.4100 59.1220
93.4200 58.8012
93.4300 52.6725
93.4400 49.5663
93.4500 44.5795
93.4600 45.9492
93.4700 51.2746
93.4800 52.0500
93.4900 54.3772
93.5000 56.7351
93.5100 64.0268
93.5200 48.4701
93.5300 49.0031
93.5400 53.9576
93.5500 45.9088
93.5600 57.6706
93.5700 54.4470
93.5800 48.2194
93.5900 43.1815
93.6000 41.8680
93.6100 51.6680
93.6200 53.6761
93.6300 57.5387
93.6400 44.0472
93.6500 57.2574
93.6600 53.4282
93.6700 58.7690
93.6800 46.1854
93.6900 49.6930
93.7000 50.8183
93.7100 53.0344
93.7200 55.7241
93.7300 54.5468
93.7400 50.3380
93.7500 54.9507
93.7600 46.2350
93.7700 42.2506
93.7800 47.5191
93.7900 38.9516
93.8000 46.4094
93.8100 38.9637
93.8200 41.3742
93.8300 68.7606
93.8400 54.7484
93.8500 58.2293
93.8600 51.3550
93.8700 51.8808
93.8800 54.1250
93.8900 48.3847
93.9000 47.9853
93.9100 49.8982
93.9200 47.2198
93.9300 61.6376
93.9400 51.5234
93.9500 42.2817
93.9600 48.1584
93.9700 65.6281
93.9800 57.4932
93.9900 58.3434
94.0000 48.4198
94.0100 52.2710
94.0200 43.8607
94.0300 37.0271
94.0400 45.6483
94.0500 48.5059
94.0600 51.4803
94.0700 44.7184
94.0800 31.8168
94.0900 47.2163
94.1000 56.5206
94.1100 55.8924
94.1200 43.9301
94.1300 52.8073
94.1400 49.8030
94.1500 67.0255
94.1600 53.3073
94.1700 53.2937
94.1800 53.4674
94.1900 43.5822
94.2000 48.2331
94.2100 45.6872
94.2200 42.6111
94.2300 35.7051
94.2400 38.7105
94.2500 51.8314
94.2600 42.6644
94.2700 43.0090
94.2800 52.0605
94.2900 47.1953
94.3000 32.6990
94.3100 42.9298
94.3200 47.9328
94.3300 48.0452
94.3400 34.9929
94.3500 50.6013
94.3600 45.0341
94.3700 49.1259
94.3800 57.8025
94.3900 45.2819
94.4000 46.4286
94.4100 48.7105
94.4200 58.2998
94.4300 53.6477
94.4400 52.3711
94.4500 47.3229
94.4600 63.4247
94.4700 47.8798
94.4800 43.9488
94.4900 44.4283
94.5000 49.1353
94.5100 49.4901
94.5200 50.1468
94.5300 60.6426
94.5400 46.6029
94.5500 45.8136
94.5600 50.0604
94.5700 42.5296
94.5800 55.5997
94.5900 46.2045
94.6000 55.1854
94.6100 48.8368
94.6200 55.2060
94.6300 41.0798
94.6400 46.4864
94.6500 41.2740
94.6600 54.7588
94.6700 48.2510
94.6800 53.6926
94.6900 52.7332
94.7000 56.8020
94.7100 43.9613
94.7200 39.9431
94.7300 33.1803
94.7400 47.1753
94.7500 57.6082
94.7600 41.6509
94.7700 40.6288
94.7800 50.4963
94.7900 44.6614
94.8000 55.1816
94.8100 52.6027
94.8200 49.4145
94.8300 50.9775
94.8400 53.5156
94.8500 47.3722
94.8600 57.8873
94.8700 47.6016
94.8800 44.8829
94.8900 49.3292
94.9000 49.7817
94.9100 36.7395
94.9200 51.6762
94.9300 52.5452
94.9400 39.1193
94.9500 52.9614
94.9600 61.9974
94.9700 55.1279
94.9800 45.5622
94.9900 51.2530
95.0000 52.6638
95.0100 42.6133
95.0200 49.4417
95.0300 56.4048
95.0400 62.1471
95.0500 56.6992
95.0600 51.2789
95.0700 44.3317
95.0800 40.5102
95.0900 54.6834
95.1000 47.4771
95.1100 54.1762
95.1200 39.3461
95.1300 47.1818
95.1400 35.3662
95.1500 48.1500
95.1600 42.3533
95.1700 40.8648
95.1800 41.5524
95.1900 41.7133
95.2000 51.7497
95.2100 51.6530
95.2200 44.4822
95.2300 54.6258
95.2400 58.6124
95.2500 45.7455
95.2600 37.7125
95.2700 54.9714
95.2800 50.0979
95.2900 59.9941
95.3000 43.3826
95.3100 40.7417
95.3200 51.8728
95.3300 48.1384
95.3400 51.3009
95.3500 44.1275
95.3600 52.7736
95.3700 49.9304
95.3800 54.8205
95.3900 49.4258
95.4000 41.4999
95.4100 43.6182
95.4200 50.2190
95.4300 46.4217
95.4400 42.5931
95.4500 53.2501
95.4600 51.7074
95.4700 57.3818
95.4800 41.7677
95.4900 52.5307
95.5000 57.0075
95.5100 41.2174
95.5200 49.1589
95.5300 48.7552
95.5400 39.0083
95.5500 64.5187
95.5600 53.6053
95.5700 50.3111
95.5800 41.4436
95.5900 37.5208
95.6000 39.9904
95.6100 56.8523
95.6200 46.1288
95.6300 56.0791
95.6400 52.1169
95.6500 62.0579
95.6600 49.0530
95.6700 58.9915
95.6800 54.7064
95.6900 52.5904
95.7000 33.4651
95.7100 49.2793
95.7200 51.9834
95.7300 52.7844
95.7400 43.1845
95.7500 48.8355
95.7600 39.6883
95.7700 42.1895
95.7800 48.2299
95.7900 42.0440
95.8000 63.5180
95.8100 50.8800
95.8200 50.0184
95.8300 47.9038
95.8400 47.6542
95.8500 51.7147
95.8600 40.9688
95.8700 45.9245
95.8800 51.3308
95.8900 41.9027
95.9000 63.1860
95.9100 47.7043
95.9200 42.9594
95.9300 38.3290
95.9400 66.2058
95.9500 55.5051
95.9600 51.8715
95.9700 47.5387
95.9800 42.9071
95.9900 48.1907
96.0000 35.6936
96.0100 43.1078
96.0200 47.0383
96.0300 44.1403
96.0400 34.7559
96.0500 53.9740
96.0600 62.0783
96.0700 54.0088
96.0800 52.9637
96.0900 41.7339
96.1000 48.0957
96.1100 51.5855
96.1200 41.8443
96.1300 53.5381
96.1400 45.2440
96.1500 60.8546
96.1600 51.5457
96.1700 44.8588
96.1800 35.8324
96.1900 43.2453
96.2000 52.5150
96.2100 50.1574
96.2200 52.5712
96.2300 50.8702
96.2400 45.1888
96.2500 54.0184
96.2600 51.5045
96.2700 54.5410
96.2800 52.4551
96.2900 53.8652
96.3000 48.4320
96.3100 49.8187
96.3200 46.7621
96.3300 54.6587
96.3400 56.0739
96.3500 36.9733
96.3600 45.7158
96.3700 46.7021
96.3800 49.4486
96.3900 46.0254
96.4000 47.9665
96.4100 41.3932
96.4200 50.7513
96.4300 45.0184
96.4400 51.6925
96.4500 56.0607
96.4600 56.8632
96.4700 58.6787
96.4800 49.4294
96.4900 43.4263
96.5000 49.7758
96.5100 37.6058
96.5200 58.2629
96.5300 47.1814
96.5400 45.2245
96.5500 41.7508
96.5600 46.1635
96.5700 51.3060
96.5800 39.7144
96.5900 39.8374
96.6000 41.3379
96.6100 61.8294
96.6200 51.2121
96.6300 53.0708
96.6400 45.7026
96.6500 36.1550
96.6600 48.7982
96.6700 43.7744
96.6800 49.0393
96.6900 49.8608
96.7000 44.1150
96.7100 64.8202
96.7200 50.5797
96.7300 41.8085
96.7400 60.7211
96.7500 60.5825
96.7600 57.7902
96.7700 41.5825
96.7800 69.2883
96.7900 58.6052
96.8000 57.7163
96.8100 45.2568
96.8200 58.1457
96.8300 58.8523
96.8400 41.8608
96.8500 56.9869
96.8600 60.9088
96.8700 51.4931
96.8800 48.3340
96.8900 55.0989
96.9000 44.8116
96.9100 49.2853
96.9200 49.8826
96.9300 39.7039
96.9400 50.9274
96.9500 52.6782
96.9600 60.1775
96.9700 57.1114
96.9800 55.9142
96.9900 48.3657
97.0000 51.5682
97.0100 54.0417
97.0200 45.1142
97.0300 46.0563
97.0400 53.4278
97.0500 51.7764
97.0600 48.4676
97.0700 53.0353
97.0800 42.5136
97.0900 56.9167
97.1000 53.8535
97.1100 38.7869
97.1200 68.7601
97.1300 67.1641
97.1400 59.0272
97.1500 54.5844
97.1600 45.2999
97.1700 45.1626
97.1800 51.8725
97.1900 56.3263
97.2000 53.5824
97.2100 50.8017
97.2200 57.2925
97.2300 52.1376
97.2400 41.1660
97.2500 50.3844
97.2600 54.8710
97.2700 55.6986
97.2800 55.2944
97.2900 53.8195
97.3000 50.4206
97.3100 50.0369
97.3200 58.2664
97.3300 48.9108
97.3400 51.2264
97.3500 50.2908
97.3600 52.5094
97.3700 47.8171
97.3800 43.1861
97.3900 44.7379
97.4000 50.8578
97.4100 38.9642
97.4200 48.5857
97.4300 52.4582
97.4400 50.1114
97.4500 47.2799
97.4600 53.5023
97.4700 47.3598
97.4800 54.6962
97.4900 51.7360
97.5000 53.3800
97.5100 51.3284
97.5200 55.4188
97.5300 55.5047
97.5400 47.8474
97.5500 48.2229
97.5600 46.4126
97.5700 58.0521
97.5800 53.0458
97.5900 57.4343
97.6000 57.9275
97.6100 55.4188
97.6200 58.1972
97.6300 62.9961
97.6400 50.3510
97.6500 46.2530
97.6600 50.3458
97.6700 44.7397
97.6800 57.8982
97.6900 37.3170
97.7000 47.8778
97.7100 53.3380
97.7200 48.7598
97.7300 51.0485
97.7400 55.6147
97.7500 52.3255
97.7600 59.2260
97.7700 58.1692
97.7800 42.0654
97.7900 58.9637
97.8000 47.7421
97.8100 50.9774
97.8200 44.8077
97.8300 46.9003
97.8400 61.6971
97.8500 55.7766
97.8600 58.3209
97.8700 42.8829
97.8800 52.9773
97.8900 52.2206
97.9000 51.4545
97.9100 49.7007
97.9200 42.1804
97.9300 53.9161
97.9400 59.8891
97.9500 54.7929
97.9600 62.4260
97.9700 51.8433
97.9800 44.9964
97.9900 49.1787
98.0000 52.7162
98.0100 49.5219
98.0200 35.1181
98.0300 30.4763
98.0400 48.1976
98.0500 53.5640
98.0600 47.8180
98.0700 60.3017
98.0800 61.8334
98.0900 56.8193
98.1000 36.8692
98.1100 48.9321
98.1200 56.9040
98.1300 56.7359
98.1400 46.2127
98.1500 48.3178
98.1600 41.5019
98.1700 61.4213
98.1800 42.5455
98.1900 42.4282
98.2000 50.9646
98.2100 47.2067
98.2200 51.6886
98.2300 57.2372
98.2400 54.0529
98.2500 51.8098
98.2600 53.8599
98.2700 42.1956
98.2800 46.8235
98.2900 54.0835
98.3000 40.9466
98.3100 49.5809
98.3200 66.0620
98.3300 56.7418
98.3400 54.9443
98.3500 52.3340
98.3600 57.0854
98.3700 44.8158
98.3800 44.5402
98.3900 46.9002
98.4000 52.6237
98.4100 47.0812
98.4200 51.5792
98.4300 56.1830
98.4400 48.7472
98.4500 48.6769
98.4600 62.6433
98.4700 50.5638
98.4800 44.3232
98.4900 52.1203
98.5000 54.2761
98.5100 55.2579
98.5200 41.5384
98.5300 53.4639
98.5400 70.2348
98.5500 42.1726
98.5600 55.0817
98.5700 54.6468
98.5800 49.1974
98.5900 53.2455
98.6000 45.5635
98.6100 48.1139
98.6200 43.6813
98.6300 43.7812
98.6400 60.0380
98.6500 57.5503
98.6600 51.4369
98.6700 46.0736
98.6800 43.9394
98.6900 54.9174
98.7000 49.5806
98.7100 54.8036
98.7200 51.1033
98.7300 60.7032
98.7400 65.3190
98.7500 50.1649
98.7600 55.7068
98.7700 53.7214
98.7800 49.0487
98.7900 56.3706
98.8000 52.8683
98.8100 61.6670
98.8200 53.9513
98.8300 45.8332
98.8400 51.2668
98.8500 55.6288
98.8600 49.3741
98.8700 52.7895
98.8800 50.6694
98.8900 52.3234
98.9000 48.2808
98.9100 54.4873
98.9200 53.1120
98.9300 54.4748
98.9400 44.2677
98.9500 36.8541
98.9600 55.6256
98.9700 46.2769
98.9800 44.0849
98.9900 57.6854
99.0000 48.4673
99.0100 57.5492
99.0200 50.0584
99.0300 59.9805
99.0400 50.3450
99.0500 57.7941
99.0600 54.5840
99.0700 58.0150
99.0800 58.7890
99.0900 43.8225
99.1000 54.4998
99.1100 58.6965
99.1200 46.2676
99.1300 55.2743
99.1400 54.7484
99.1500 52.4351
99.1600 54.3551
99.1700 43.9160
99.1800 58.1977
99.1900 45.2521
99.2000 64.4023
99.2100 59.5267
99.2200 47.0997
99.2300 42.2714
99.2400 53.1922
99.2500 52.3384
99.2600 53.7537
99.2700 56.2268
99.2800 57.5477
99.2900 62.0340
99.3000 60.1934
99.3100 50.2610
99.3200 46.5910
99.3300 38.4744
99.3400 43.4254
99.3500 45.1637
99.3600 41.6505
99.3700 51.9676
99.3800 46.3664
99.3900 44.7811
99.4000 41.3254
99.4100 46.8914
99.4200 49.7498
99.4300 60.5887
99.4400 52.5416
99.4500 50.2516
99.4600 62.9856
99.4700 58.0108
99.4800 52.9420
99.4900 60.3199
99.5000 33.0516
99.5100 51.0289
99.5200 50.7149
99.5300 54.3005
99.5400 65.1244
99.5500 59.8314
99.5600 62.7547
99.5700 46.0695
99.5800 45.3996
99.5900 63.4833
99.6000 52.9733
99.6100 53.4200
99.6200 49.7939
99.6300 61.7660
99.6400 47.0920
99.6500 52.1958
99.6600 60.1316
99.6700 51.7128
99.6800 53.2900
99.6900 55.7375
99.7000 54.2396
99.7100 44.4528
99.7200 48.2696
99.7300 56.4347
99.7400 55.9008
99.7500 58.6056
99.7600 53.8697
99.7700 50.7591
99.7800 54.8903
99.7900 57.5730
99.8000 47.5067
99.8100 36.8119
99.8200 61.8227
99.8300 51.4932
99.8400 44.4028
99.8500 45.2493
99.8600 58.6248
99.8700 45.3095
99.8800 55.0440
99.8900 48.5530
99.9000 48.1982
99.9100 59.6066
99.9200 37.4304
99.9300 43.6581
99.9400 53.7957
99.9500 55.0454
99.9600 50.7093
99.9700 41.4200
99.9800 52.6587
99.9900 40.3338
100.0000 52.8002
100.0100 39.1345
100.0200 60.8677
100.0300 42.0519
100.0400 57.4920
100.0500 54.7328
100.0600 42.1074
100.0700 42.9619
100.0800 46.5633
100.0900 48.6186
100.1000 42.4747
100.1100 55.5086
100.1200 55.3953
100.1300 51.8099
100.1400 47.6456
100.1500 46.6123
100.1600 51.2211
100.1700 36.1218
100.1800 40.4889
100.1900 55.5247
100.2000 48.5072
100.2100 55.4211
100.2200 61.8026
100.2300 50.3377
100.2400 44.5668
100.2500 40.5403
100.2600 49.8530
100.2700 61.6854
100.2800 52.2395
100.2900 65.0025
100.3000 52.6458
100.3100 60.3091
100.3200 51.2668
100.3300 49.7130
100.3400 39.4469
100.3500 58.7031
100.3600 51.3655
100.3700 44.4324
100.3800 40.7016
100.3900 58.7819
100.4000 48.1912
100.4100 49.6705
100.4200 60.0755
100.4300 49.5322
100.4400 39.4762
100.4500 54.6959
100.4600 44.7500
100.4700 54.5163
100.4800 51.3212
100.4900 66.8060
100.5000 56.5262
100.5100 54.2409
100.5200 45.9055
100.5300 43.7435
100.5400 56.8455
100.5500 36.2470
100.5600 54.1163
100.5700 50.1579
100.5800 39.0918
100.5900 43.9507
100.6000 57.7620
100.6100 47.0228
100.6200 44.6361
100.6300 44.9890
100.6400 54.1044
100.6500 53.3927
100.6600 51.9733
100.6700 66.7601
100.6800 50.6756
100.6900 50.2322
100.7000 53.1567
100.7100 47.4753
100.7200 52.4224
100.7300 39.1350
100.7400 54.4103
100.7500 48.9327
100.7600 40.9399
100.7700 54.2173
100.7800 58.2775
100.7900 53.1205
100.8000 51.2021
100.8100 38.3097
100.8200 56.0944
100.8300 47.8622
100.8400 49.5480
100.8500 53.7802
100.8600 39.1330
100.8700 51.2807
100.8800 45.2770
100.8900 49.6140
100.9000 51.0437
100.9100 58.3091
100.9200 52.8288
100.9300 42.0186
100.9400 38.9039
100.9500 55.7444
100.9600 51.6934
100.9700 64.5189
100.9800 55.9116
100.9900 44.6436
101.0000 46.5859
101.0100 45.1267
101.0200 47.3180
101.0300 50.6339
101.0400 45.3809
101.0500 53.5450
101.0600 45.1822
101.0700 50.9676
101.0800 60.0567
101.0900 39.2509
101.1000 45.0378
101.1100 49.8069
101.1200 51.5222
101.1300 60.1577
101.1400 56.1692
101.1500 43.2466
101.1600 44.2053
101.1700 43.6396
101.1800 61.0595
101.1900 43.9523
101.2000 49.2090
101.2100 46.0456
101.2200 55.8394
101.2300 60.6997
101.2400 60.4788
101.2500 54.5598
101.2600 47.9544
101.2700 53.2540
101.2800 55.1119
101.2900 56.7317
101.3000 56.5564
101.3100 47.6787
101.3200 64.5529
101.3300 49.1222
101.3400 52.1616
101.3500 56.7936
101.3600 55.6669
101.3700 56.6945
101.3800 55.5247
101.3900 49.4768
101.4000 41.1674
101.4100 50.4961
101.4200 46.5585
101.4300 53.1958
101.4400 45.8914
101.4500 41.6975
101.4600 50.4491
101.4700 34.5236
101.4800 55.3780
101.4900 58.1060
101.5000 41.4722
101.5100 57.3645
101.5200 49.3988
101.5300 55.0629
101.5400 49.6923
101.5500 47.7398
101.5600 40.4349
101.5700 46.8340
101.5800 55.1286
101.5900 40.5760
101.6000 50.2124
101.6100 52.7910
101.6200 53.1120
101.6300 43.9077
101.6400 44.5922
101.6500 47.6171
101.6600 49.3196
101.6700 43.9895
101.6800 47.7174
101.6900 58.7028
101.7000 50.6839
101.7100 52.6599
101.7200 44.9033
101.7300 47.6541
101.7400 40.2751
101.7500 55.9431
101.7600 45.4023
101.7700 47.0179
101.7800 44.5156
101.7900 50.9412
101.8000 56.3476
101.8100 47.1091
101.8200 50.5796
101.8300 58.2915
101.8400 54.4072
101.8500 55.1451
101.8600 56.1862
101.8700 60.7277
101.8800 50.2193
101.8900 52.8658
101.9000 53.1485
101.9100 43.5691
101.9200 48.6450
101.9300 62.0533
101.9400 53.6358
101.9500 52.4802
101.9600 51.0206
101.9700 54.2539
101.9800 50.3940
101.9900 53.3124
102.0000 53.1808
102.0100 47.0296
102.0200 47.6244
102.0300 42.1185
102.0400 57.4803
102.0500 55.3193
102.0600 59.8737
102.0700 53.2674
102.0800 44.7262
102.0900 49.3154
102.1000 45.0235
102.1100 54.9212
102.1200 45.2929
102.1300 41.5404
102.1400 56.3202
102.1500 36.8039
102.1600 44.1707
102.1700 40.0468
102.1800 48.9989
102.1900 61.9590
102.2000 55.0971
102.2100 52.2193
102.2200 41.0758
102.2300 52.9121
102.2400 48.3233
102.2500 32.2631
102.2600 32.4206
102.2700 51.5921
102.2800 50.3420
102.2900 50.8638
102.3000 50.9440
102.3100 44.9945
102.3200 43.8237
102.3300 49.1440
102.3400 49.6135
102.3500 47.2626
102.3600 39.7325
102.3700 43.1090
102.3800 49.9185
102.3900 48.0105
102.4000 42.5350
102.4100 47.6059
102.4200 48.7934
102.4300 41.6924
102.4400 40.6347
102.4500 52.1602
102.4600 42.1624
102.4700 47.9506
102.4800 48.9239
102.4900 53.3651
102.5000 51.3159
102.5100 55.3855
102.5200 48.1996
102.5300 47.1529
102.5400 53.6252
102.5500 52.7421
102.5600 59.7322
102.5700 51.2812
102.5800 38.8571
102.5900 49.0364
102.6000 49.4607
102.6100 50.3322
102.6200 48.6789
102.6300 57.7583
102.6400 48.6335
102.6500 53.2693
102.6600 46.6237
102.6700 45.9119
102.6800 52.6890
102.6900 43.4974
102.7000 40.7953
102.7100 50.9850
102.7200 50.4590
102.7300 51.3854
102.7400 55.4538
102.7500 45.6833
102.7600 51.0890
102.7700 59.9166
102.7800 42.7998
102.7900 63.0579
102.8000 51.5904
102.8100 44.2930
102.8200 50.7471
102.8300 42.7791
102.8400 46.3741
102.8500 52.4753
102.8600 48.8030
102.8700 47.2214
102.8800 62.8782
102.8900 55.7868
102.9000 51.6010
102.9100 43.6361
102.9200 52.8845
102.9300 46.4327
102.9400 48.8800
102.9500 57.7001
102.9600 46.8048
102.9700 42.8667
102.9800 41.7390
102.9900 46.0609
103.0000 48.0864
103.0100 53.8312
103.0200 55.1244
103.0300 47.4217
103.0400 50.8355
103.0500 44.0023
103.0600 47.7148
103.0700 49.3352
103.0800 61.6342
103.0900 45.1814
103.1000 42.0964
103.1100 52.2397
103.1200 48.8974
103.1300 50.7752
103.1400 51.2867
103.1500 54.7213
103.1600 48.6589
103.1700 47.3345
103.1800 47.4609
103.1900 37.1420
103.2000 58.7496
103.2100 57.1499
103.2200 46.9611
103.2300 57.9809
103.2400 40.3965
103.2500 38.1811
103.2600 49.3271
103.2700 39.5319
103.2800 54.0121
103.2900 55.0263
103.3000 54.9848
103.3100 54.6767
103.3200 50.0113
103.3300 48.8477
103.3400 49.4669
103.3500 52.9323
103.3600 67.3313
103.3700 49.7508
103.3800 44.5203
103.3900 56.7589
103.4000 51.8516
103.4100 50.5499
103.4200 65.1827
103.4300 54.8896
103.4400 55.4157
103.4500 50.5193
103.4600 54.1499
103.4700 51.3763
103.4800 66.8062
103.4900 50.8997
103.5000 45.0106
103.5100 39.3485
103.5200 56.1869
103.5300 44.2598
103.5400 45.9102
103.5500 49.1983
103.5600 49.6401
103.5700 47.6665
103.5800 47.5412
103.5900 50.3130
103.6000 53.4835
103.6100 46.8320
103.6200 63.9311
103.6300 53.6673
103.6400 53.8934
103.6500 58.8291
103.6600 56.8889
103.6700 57.3328
103.6800 53.2436
103.6900 52.1249
103.7000 49.7623
103.7100 58.5230
103.7200 40.6951
103.7300 45.0124
103.7400 54.5968
103.7500 45.3097
103.7600 53.9075
103.7700 53.8838
103.7800 51.8276
103.7900 58.3619
103.8000 61.5848
103.8100 59.0935
103.8200 48.8898
103.8300 58.6716
103.8400 60.8543
103.8500 54.6947
103.8600 49.7524
103.8700 62.3156
103.8800 52.9549
103.8900 57.7526
103.9000 41.4715
103.9100 59.5153
103.9200 38.3711
103.9300 46.3952
103.9400 40.2247
103.9500 58.2122
103.9600 47.8199
103.9700 55.4152
103.9800 57.8857
103.9900 46.8993
104.0000 48.5388
104.0100 45.9157
104.0200 43.3994
104.0300 38.7426
104.0400 45.2609
104.0500 54.2917
104.0600 67.8860
104.0700 38.7098
104.0800 40.4261
104.0900 51.1359
104.1000 46.2393
104.1100 55.1336
104.1200 56.6519
104.1300 58.9895
104.1400 41.7100
104.1500 57.0642
104.1600 52.5804
104.1700 49.0778
104.1800 52.6123
104.1900 49.2625
104.2000 41.1766
104.2100 51.5991
104.2200 42.8672
104.2300 55.9063
104.2400 46.2877
104.2500 45.9383
104.2600 54.9493
104.2700 57.2283
104.2800 42.5157
104.2900 47.2720
104.3000 51.3863
104.3100 53.1227
104.3200 53.9339
104.3300 45.5550
104.3400 57.7082
104.3500 51.3919
104.3600 54.4898
104.3700 42.7495
104.3800 52.1550
104.3900 48.7416
104.4000 46.8037
104.4100 48.7001
104.4200 51.4105
104.4300 43.1977
104.4400 51.8369
104.4500 47.5620
104.4600 54.3431
104.4700 51.0246
104.4800 55.0200
104.4900 40.4553
104.5000 39.9186
104.5100 47.8970
104.5200 51.6335
104.5300 42.1689
104.5400 61.8937
104.5500 56.8570
104.5600 43.1965
104.5700 44.7675
104.5800 51.7000
104.5900 61.4914
104.6000 43.4943
104.6100 57.5141
104.6200 50.1317
104.6300 45.0083
104.6400 49.0778
104.6500 53.6835
104.6600 47.3875
104.6700 56.9963
104.6800 54.5422
104.6900 51.9866
104.7000 46.6038
104.7100 45.5394
104.7200 58.4279
104.7300 48.5481
104.7400 54.2931
104.7500 51.5368
104.7600 59.2754
104.7700 53.1862
104.7800 50.0165
104.7900 60.0714
104.8000 45.5676
104.8100 54.9527
104.8200 46.9933
104.8300 50.5804
104.8400 49.9946
104.8500 51.7316
104.8600 55.6222
104.8700 54.7563
104.8800 44.9156
104.8900 49.9950
104.9000 56.3391
104.9100 52.1766
104.9200 44.2542
104.9300 50.5822
104.9400 37.3484
104.9500 64.3132
104.9600 53.0289
104.9700 58.2831
104.9800 45.2362
104.9900 55.5248
105.0000 41.2473
105.0100 54.3334
105.0200 50.3050
105.0300 54.5901
105.0400 59.8071
105.0500 55.1750
105.0600 56.9343
105.0700 47.8534
105.0800 44.6726
105.0900 51.1526
105.1000 42.0136
105.1100 56.1585
105.1200 44.8058
105.1300 48.8442
105.1400 51.4755
105.1500 44.2385
105.1600 32.9380
105.1700 40.1822
105.1800 43.3883
105.1900 34.8775
105.2000 48.0573
105.2100 39.4290
105.2200 46.8343
105.2300 50.0831
105.2400 56.4994
105.2500 63.1365
105.2600 52.9996
105.2700 50.5516
105.2800 41.3250
105.2900 56.1434
105.3000 45.5442
105.3100 58.6772
105.3200 55.2138
105.3300 49.4678
105.3400 60.7468
105.3500 52.4902
105.3600 53.4560
105.3700 42.2204
105.3800 51.9179
105.3900 48.2571
105.4000 46.4585
105.4100 47.3189
105.4200 34.6346
105.4300 46.4582
105.4400 41.1641
105.4500 46.9401
105.4600 43.7674
105.4700 35.3966
105.4800 40.0964
105.4900 51.2730
105.5000 48.7766
105.5100 50.1158
105.5200 60.9705
105.5300 43.4255
105.5400 45.0065
105.5500 31.5327
105.5600 51.9723
105.5700 55.3808
105.5800 47.3205
105.5900 52.6719
105.6000 43.2061
105.6100 64.0172
105.6200 51.3223
105.6300 59.3558
105.6400 51.0616
105.6500 44.2138
105.6600 73.3364
105.6700 52.2316
105.6800 40.6815
105.6900 34.6653
105.7000 48.7822
105.7100 47.5670
105.7200 50.9628
105.7300 49.8349
105.7400 53.4254
105.7500 48.7513
105.7600 58.2255
105.7700 37.1123
105.7800 44.4478
105.7900 53.4899
105.8000 51.3955
105.8100 57.5314
105.8200 55.5510
105.8300 43.4749
105.8400 50.7343
105.8500 49.4205
105.8600 49.4814
105.8700 42.3088
105.8800 53.2080
105.8900 34.5954
105.9000 54.3027
105.9100 59.7580
105.9200 36.7266
105.9300 51.1853
105.9400 45.2141
105.9500 43.4349
105.9600 53.6781
105.9700 46.5109
105.9800 44.9397
105.9900 53.7304
106.0000 51.1421
106.0100 44.7368
106.0200 55.5847
106.0300 53.6138
106.0400 35.9157
106.0500 38.4540
106.0600 48.2785
106.0700 46.5187
106.0800 47.8069
106.0900 53.0248
106.1000 41.6000
106.1100 49.6657
106.1200 50.2193
106.1300 47.4600
106.1400 37.1857
106.1500 44.6466
106.1600 44.8604
106.1700 49.0465
106.1800 55.8153
106.1900 49.5371
106.2000 46.5934
106.2100 52.5104
106.2200 44.9506
106.2300 53.6105
106.2400 62.2751
106.2500 53.9063
106.2600 51.0897
106.2700 60.8807
106.2800 54.0164
106.2900 57.5944
106.3000 52.6350
106.3100 43.0757
106.3200 47.1118
106.3300 54.5909
106.3400 57.5189
106.3500 55.7554
106.3600 60.7946
106.3700 38.8667
106.3800 47.3281
106.3900 58.0253
106.4000 49.1305
106.4100 41.9748
106.4200 50.8475
106.4300 42.9426
106.4400 37.3223
106.4500 50.3047
106.4600 56.6411
106.4700 42.6694
106.4800 47.6581
106.4900 52.2511
106.5000 43.0597
106.5100 56.1002
106.5200 47.1928
106.5300 51.0691
106.5400 55.9422
106.5500 50.6445
106.5600 54.2473
106.5700 51.0743
106.5800 53.8871
106.5900 44.4889
106.6000 42.1975
106.6100 64.0565
106.6200 52.6824
106.6300 49.6829
106.6400 48.9773
106.6500 48.2501
106.6600 46.3301
106.6700 60.4257
106.6800 50.1213
106.6900 68.6327
106.7000 48.7540
106.7100 52.4316
106.7200 53.2108
106.7300 49.2962
106.7400 54.2180
106.7500 54.0595
106.7600 43.0068
106.7700 47.3603
106.7800 45.2820
106.7900 44.4970
106.8000 57.7989
106.8100 61.3512
106.8200 43.2764
106.8300 44.1235
106.8400 46.6630
106.8500 50.2085
106.8600 48.4698
106.8700 48.8908
106.8800 41.2655
106.8900 41.8471
106.9000 36.5717
106.9100 48.1721
106.9200 49.5508
106.9300 50.9745
106.9400 47.5143
106.9500 60.8408
106.9600 46.0667
106.9700 44.5496
106.9800 40.9013
106.9900 33.6318
107.0000 55.0792
107.0100 48.0562
107.0200 48.1426
107.0300 46.5143
107.0400 58.0384
107.0500 45.1697
107.0600 43.0111
107.0700 46.5048
107.0800 48.4038
107.0900 50.1901
107.1000 49.8806
107.1100 47.6300
107.1200 41.3063
107.1300 39.5027
107.1400 44.7704
107.1500 58.9452
107.1600 41.1748
107.1700 44.1792
107.1800 53.7694
107.1900 58.5152
107.2000 49.6356
107.2100 54.2317
107.2200 51.3074
107.2300 55.8274
107.2400 46.6718
107.2500 49.9962
107.2600 37.8099
107.2700 45.2934
107.2800 51.3186
107.2900 50.8764
107.3000 48.4842
107.3100 49.7618
107.3200 52.4489
107.3300 60.6843
107.3400 39.5221
107.3500 66.3545
107.3600 54.1425
107.3700 55.8305
107.3800 47.0087
107.3900 63.7134
107.4000 52.7246
107.4100 56.6701
107.4200 63.3855
107.4300 56.9226
107.4400 53.8515
107.4500 50.0767
107.4600 48.4824
107.4700 44.3818
107.4800 57.8579
107.4900 57.5662
107.5000 47.5809
107.5100 62.7699
107.5200 44.2517
107.5300 41.6964
107.5400 45.3198
107.5500 53.3002
107.5600 52.3358
107.5700 44.7874
107.5800 56.4060
107.5900 50.2092
107.6000 55.9479
107.6100 45.7600
107.6200 55.8632
107.6300 51.5296
107.6400 49.1010
107.6500 46.8332
107.6600 56.9391
107.6700 59.2469
107.6800 56.3328
107.6900 51.3082
107.7000 52.1890
107.7100 50.2287
107.7200 52.5564
107.7300 48.3225
107.7400 42.9954
107.7500 35.9068
107.7600 40.6187
107.7700 37.5881
107.7800 54.7124
107.7900 46.0741
107.8000 43.2359
107.8100 59.3566
107.8200 50.2539
107.8300 54.9708
107.8400 61.0242
107.8500 40.6352
107.8600 42.9632
107.8700 38.2322
107.8800 44.0073
107.8900 62.6504
107.9000 51.2480
107.9100 46.9500
107.9200 50.7901
107.9300 53.8424
107.9400 59.3194
107.9500 44.4110
107.9600 47.7246
107.9700 48.1833
107.9800 52.9330
107.9900 43.3138
108.0000 46.9005
108.0100 53.4557
108.0200 50.4546
108.0300 51.5558
108.0400 42.4285
108.0500 44.6992
108.0600 59.8006
108.0700 52.4165
108.0800 34.5841
108.0900 50.0189
108.1000 52.3017
108.1100 47.3322
108.1200 45.9293
108.1300 51.0554
108.1400 46.0677
108.1500 52.7607
108.1600 55.2732
108.1700 50.8820
108.1800 54.4455
108.1900 52.8673
108.2000 54.3324
108.2100 51.3177
108.2200 60.1009
108.2300 51.7272
108.2400 40.1889
108.2500 46.5439
108.2600 51.1817
108.2700 48.5036
108.2800 54.6033
108.2900 51.7560
108.3000 48.4512
108.3100 60.9211
108.3200 55.7571
108.3300 47.8244
108.3400 50.8775
108.3500 50.4041
108.3600 52.2616
108.3700 45.6215
108.3800 50.2373
108.3900 50.5279
108.4000 43.5252
108.4100 45.1088
108.4200 48.9957
108.4300 43.3610
108.4400 65.6007
108.4500 55.0124
108.4600 42.7926
108.4700 52.6931
108.4800 53.8999
108.4900 55.2395
108.5000 42.9111
108.5100 50.1413
108.5200 65.4586
108.5300 52.5536
108.5400 53.0108
108.5500 42.2152
108.5600 42.4869
108.5700 53.3857
108.5800 50.1478
108.5900 47.8320
108.6000 65.7259
108.6100 48.8084
108.6200 62.5311
108.6300 53.0223
108.6400 61.3766
108.6500 56.2284
108.6600 54.9363
108.6700 50.9956
108.6800 42.8594
108.6900 36.1626
108.7000 41.4518
108.7100 39.5739
108.7200 51.0205
108.7300 43.6319
108.7400 45.4503
108.7500 51.7993
108.7600 41.9425
108.7700 49.4839
108.7800 51.0183
108.7900 51.3466
108.8000 47.7272
108.8100 41.1638
108.8200 48.8739
108.8300 48.8639
108.8400 49.3985
108.8500 48.2491
108.8600 44.6155
108.8700 43.5866
108.8800 49.0959
108.8900 51.5672
108.9000 46.9523
108.9100 53.2840
108.9200 44.5412
108.9300 45.3858
108.9400 49.5003
108.9500 42.8553
108.9600 56.3445
108.9700 53.8656
108.9800 59.3349
108.9900 55.4258
109.0000 63.9855
109.0100 49.4762
109.0200 52.0335
109.0300 57.8363
109.0400 47.5280
109.0500 58.3450
109.0600 67.5518
109.0700 48.1407
109.0800 51.9337
109.0900 53.0133
109.1000 52.7814
109.1100 51.3324
109.1200 45.3356
109.1300 47.2878
109.1400 52.0608
109.1500 49.4472
109.1600 43.1492
109.1700 46.3958
109.1800 52.8252
109.1900 60.7523
109.2000 59.9279
109.2100 52.5965
109.2200 59.3576
109.2300 53.2747
109.2400 44.3666
109.2500 53.9431
109.2600 48.3443
109.2700 50.1951
109.2800 44.7449
109.2900 39.1653
109.3000 52.1429
109.3100 53.2518
109.3200 50.0420
109.3300 40.5886
109.3400 48.4555
109.3500 39.5543
109.3600 54.4791
109.3700 47.4586
109.3800 50.0451
109.3900 52.6085
109.4000 46.9366
109.4100 48.1627
109.4200 45.0955
109.4300 56.1974
109.4400 53.5589
109.4500 41.2056
109.4600 55.6004
109.4700 47.3866
109.4800 48.2470
109.4900 51.6031
109.5000 48.2727
109.5100 51.9576
109.5200 53.1397
109.5300 39.2888
109.5400 46.6284
109.5500 42.0538
109.5600 62.6178
109.5700 41.1740
109.5800 50.0255
109.5900 50.2749
109.6000 41.0941
109.6100 49.4054
109.6200 45.5869
109.6300 57.4265
109.6400 46.6015
109.6500 38.5806
109.6600 56.2622
109.6700 42.9908
109.6800 37.7678
109.6900 47.6543
109.7000 48.1988
109.7100 54.1164
109.7200 54.1437
109.7300 50.5128
109.7400 70.6808
109.7500 52.9456
109.7600 47.6483
109.7700 52.5858
109.7800 48.8501
109.7900 42.6609
109.8000 54.0229
109.8100 54.1726
109.8200 64.6547
109.8300 57.4113
109.8400 60.5049
109.8500 41.8285
109.8600 54.2252
109.8700 55.8909
109.8800 52.1314
109.8900 48.6596
109.9000 55.8875
109.9100 48.8897
109.9200 50.0315
109.9300 54.8791
109.9400 46.9529
109.9500 52.7947
109.9600 49.3692
109.9700 56.1703
109.9800 55.6736
109.9900 58.8806
110.0000 52.4027
110.0100 63.0784
110.0200 62.4964
110.0300 55.3532
110.0400 50.6775
110.0500 60.0810
110.0600 51.9960
110.0700 50.6749
110.0800 40.8189
110.0900 49.8791
110.1000 48.8935
110.1100 47.8718
110.1200 49.8538
110.1300 38.3551
110.1400 50.6840
110.1500 42.0225
110.1600 46.7352
110.1700 40.2326
110.1800 55.9970
110.1900 35.9426
110.2000 44.7868
110.2100 54.9142
110.2200 48.7909
110.2300 54.1064
110.2400 50.3638
110.2500 56.3923
110.2600 51.5975
110.2700 37.1194
110.2800 57.0865
110.2900 37.9146
110.3000 54.7081
110.3100 44.6437
110.3200 46.8379
110.3300 41.8617
110.3400 49.9113
110.3500 44.4608
110.3600 51.6728
110.3700 45.2668
110.3800 45.7686
110.3900 47.4890
110.4000 40.5036
110.4100 45.5299
110.4200 54.5348
110.4300 46.5458
110.4400 43.9561
110.4500 41.8510
110.4600 55.1953
110.4700 65.0873
110.4800 54.2072
110.4900 38.3983
110.5000 57.2622
110.5100 56.6089
110.5200 52.9779
110.5300 56.7572
110.5400 49.9265
110.5500 48.4008
110.5600 54.0585
110.5700 44.7744
110.5800 47.5462
110.5900 53.2888
110.6000 42.2459
110.6100 47.5663
110.6200 51.8236
110.6300 48.8449
110.6400 54.2282
110.6500 45.1184
110.6600 48.6888
110.6700 41.6901
110.6800 42.0922
110.6900 50.3543
110.7000 44.9037
110.7100 46.1923
110.7200 45.9965
110.7300 62.9113
110.7400 48.4347
110.7500 61.8568
110.7600 53.6861
110.7700 45.8241
110.7800 59.3165
110.7900 41.2554
110.8000 43.5248
110.8100 49.5546
110.8200 51.7840
110.8300 48.3489
110.8400 49.3712
110.8500 54.8854
110.8600 52.8707
110.8700 42.7235
110.8800 48.9248
110.8900 56.6960
110.9000 61.2076
110.9100 48.7381
110.9200 63.3319
110.9300 41.6082
110.9400 37.5921
110.9500 50.8896
110.9600 47.9762
110.9700 53.9138
110.9800 56.7825
110.9900 45.4900
111.0000 47.4043
111.0100 42.4728
111.0200 53.9017
111.0300 45.4830
111.0400 61.3933
111.0500 50.6144
111.0600 58.3798
111.0700 50.3906
111.0800 52.4033
111.0900 45.7543
111.1000 60.4056
111.1100 56.9682
111.1200 50.9925
111.1300 48.2257
111.1400 55.3375
111.1500 51.7753
111.1600 49.0450
111.1700 42.9263
111.1800 48.6785
111.1900 48.3637
111.2000 50.5613
111.2100 59.6982
111.2200 53.9571
111.2300 51.9171
111.2400 60.8209
111.2500 47.2190
111.2600 48.2806
111.2700 39.8432
111.2800 51.5824
111.2900 46.2822
111.3000 65.7324
111.3100 56.8679
111.3200 48.0975
111.3300 51.0278
111.3400 46.1106
111.3500 46.5286
111.3600 48.0325
111.3700 55.3322
111.3800 53.4142
111.3900 46.9739
111.4000 57.7531
111.4100 54.7832
111.4200 58.2019
111.4300 58.3532
111.4400 40.1232
111.4500 55.5875
111.4600 49.1694
111.4700 52.5095
111.4800 53.6208
111.4900 47.3148
111.5000 47.2668
111.5100 55.6062
111.5200 44.4506
111.5300 43.1739
111.5400 47.4336
111.5500 59.0523
111.5600 41.2058
111.5700 36.8561
111.5800 53.5681
111.5900 54.7135
111.6000 60.7711
111.6100 57.1143
111.6200 51.8757
111.6300 51.9399
111.6400 59.1550
111.6500 54.9740
111.6600 41.3473
111.6700 35.3772
111.6800 58.5937
111.6900 45.7270
111.7000 52.3364
111.7100 47.0152
111.7200 50.7859
111.7300 51.6052
111.7400 42.3510
111.7500 56.4397
111.7600 52.0301
111.7700 55.2221
111.7800 47.4195
111.7900 45.0325
111.8000 43.8671
111.8100 45.6604
111.8200 46.3840
111.8300 56.2620
111.8400 47.6714
111.8500 41.2614
111.8600 53.6816
111.8700 42.7604
111.8800 61.5477
111.8900 52.2514
111.9000 59.4239
111.9100 49.1411
111.9200 45.0710
111.9300 47.2953
111.9400 52.7298
111.9500 51.7975
111.9600 41.9705
111.9700 51.5037
111.9800 46.9507
111.9900 54.9201
112.0000 49.3251
112.0100 53.0296
112.0200 59.6137
112.0300 48.0783
112.0400 49.3283
112.0500 46.6853
112.0600 47.1861
112.0700 61.3593
112.0800 59.8816
112.0900 40.2525
112.1000 48.3244
112.1100 46.8506
112.1200 47.5628
112.1300 36.0814
112.1400 48.1104
112.1500 39.6927
112.1600 49.8031
112.1700 67.0287
112.1800 47.4753
112.1900 50.4434
112.2000 57.8580
112.2100 39.1290
112.2200 49.2690
112.2300 47.1095
112.2400 46.3250
112.2500 51.7868
112.2600 50.5178
112.2700 46.9635
112.2800 55.3686
112.2900 39.5617
112.3000 45.3680
112.3100 53.6439
112.3200 54.3880
112.3300 39.4185
112.3400 54.3844
112.3500 54.8421
112.3600 57.9340
112.3700 46.8982
112.3800 52.6312
112.3900 39.0642
112.4000 48.0251
112.4100 57.0942
112.4200 43.9400
112.4300 56.9244
112.4400 54.8262
112.4500 49.0924
112.4600 45.8670
112.4700 52.2027
112.4800 50.3340
112.4900 60.6270
112.5000 43.7613
112.5100 57.0344
112.5200 42.8985
112.5300 47.3296
112.5400 47.6664
112.5500 52.5303
112.5600 46.4119
112.5700 42.3940
112.5800 48.0012
112.5900 56.6978
112.6000 57.8002
112.6100 41.7858
112.6200 36.9058
112.6300 48.5287
112.6400 48.2881
112.6500 51.6358
112.6600 58.2604
112.6700 62.4519
112.6800 46.3192
112.6900 45.2854
112.7000 50.0558
112.7100 62.1904
112.7200 54.3407
112.7300 47.5655
112.7400 60.8283
112.7500 44.8201
112.7600 53.5774
112.7700 53.7307
112.7800 50.6360
112.7900 59.5373
112.8000 51.8873
112.8100 40.9603
112.8200 57.1601
112.8300 63.8466
112.8400 52.9431
112.8500 57.3593
112.8600 39.0264
112.8700 48.0082
112.8800 42.4485
112.8900 49.0544
112.9000 49.8391
112.9100 48.0475
112.9200 40.9742
112.9300 58.0486
112.9400 66.8396
112.9500 49.7659
112.9600 43.0972
112.9700 61.1666
112.9800 51.7429
112.9900 56.3421
113.0000 47.4578
113.0100 58.7622
113.0200 57.8244
113.0300 62.8375
113.0400 46.1688
113.0500 46.0349
113.0600 61.5108
113.0700 45.4348
113.0800 50.4835
113.0900 45.2235
113.1000 55.5060
113.1100 57.4630
113.1200 57.3608
113.1300 44.3348
113.1400 46.1608
113.1500 55.9997
113.1600 56.9866
113.1700 54.1043
113.1800 53.6168
113.1900 47.8879
113.2000 57.8601
113.2100 52.0279
113.2200 51.0705
113.2300 45.2829
113.2400 46.1074
113.2500 52.9731
113.2600 39.0061
113.2700 42.7789
113.2800 51.2724
113.2900 61.7575
113.3000 46.2255
113.3100 41.3762
113.3200 48.2036
113.3300 47.8457
113.3400 63.0524
113.3500 43.4500
113.3600 50.4883
113.3700 51.4998
113.3800 55.8653
113.3900 49.6855
113.4000 50.8393
113.4100 52.8595
113.4200 51.8585
113.4300 50.1784
113.4400 54.8327
113.4500 56.5270
113.4600 53.2759
113.4700 51.2978
113.4800 54.1229
113.4900 49.6209
113.5000 48.7632
113.5100 52.7665
113.5200 49.8966
113.5300 48.0882
113.5400 55.8002
113.5500 42.4742
113.5600 53.1217
113.5700 52.9583
113.5800 48.7122
113.5900 50.3843
113.6000 64.7016
113.6100 52.7831
113.6200 54.6269
113.6300 51.9633
113.6400 55.1471
113.6500 58.4713
113.6600 47.0186
113.6700 41.8719
113.6800 55.7207
113.6900 44.2662
113.7000 47.7622
113.7100 59.4857
113.7200 49.1864
113.7300 47.1203
113.7400 51.8458
113.7500 65.6106
113.7600 55.0878
113.7700 43.2377
113.7800 63.3292
113.7900 50.6893
113.8000 44.8682
113.8100 41.2033
113.8200 48.9844
113.8300 44.6507
113.8400 50.4752
113.8500 38.3780
113.8600 52.3475
113.8700 58.3010
113.8800 49.5218
113.8900 41.1443
113.9000 46.0615
113.9100 46.7522
113.9200 43.7812
113.9300 55.4449
113.9400 54.9215
113.9500 62.6220
113.9600 48.0191
113.9700 51.7641
113.9800 40.1065
113.9900 52.8769
114.0000 46.2408
114.0100 51.1519
114.0200 47.4860
114.0300 54.2567
114.0400 63.1634
114.0500 46.7945
114.0600 63.1691
114.0700 50.0081
114.0800 47.5621
114.0900 56.5477
114.1000 62.4837
114.1100 52.9932
114.1200 38.8341
114.1300 44.3449
114.1400 56.0735
114.1500 62.5776
114.1600 67.1266
114.1700 53.7736
114.1800 48.8686
114.1900 44.9480
114.2000 49.7840
114.2100 45.7517
114.2200 50.6144
114.2300 67.8310
114.2400 52.8218
114.2500 53.3393
114.2600 58.9307
114.2700 46.8676
114.2800 48.8257
114.2900 64.5254
114.3000 56.3084
114.3100 49.6700
114.3200 46.8656
114.3300 48.3343
114.3400 47.1779
114.3500 54.7517
114.3600 64.3394
114.3700 50.7461
114.3800 50.1945
114.3900 57.1953
114.4000 42.7449
114.4100 55.6541
114.4200 48.2944
114.4300 73.8876
114.4400 56.5702
114.4500 47.4581
114.4600 51.0506
114.4700 52.6469
114.4800 49.5275
114.4900 48.4457
114.5000 61.3123
114.5100 50.9807
114.5200 49.1359
114.5300 56.9322
114.5400 58.2229
114.5500 50.4833
114.5600 45.5443
114.5700 49.0081
114.5800 60.0137
114.5900 43.5633
114.6000 59.6288
114.6100 60.0682
114.6200 57.1250
114.6300 62.3059
114.6400 61.0718
114.6500 52.6296
114.6600 49.9414
114.6700 48.9752
114.6800 43.6513
114.6900 48.6470
114.7000 60.0060
114.7100 59.5481
114.7200 38.0919
114.7300 49.1865
114.7400 42.4327
114.7500 46.6347
114.7600 51.5305
114.7700 50.5571
114.7800 57.4990
114.7900 65.9278
114.8000 48.9043
114.8100 53.6628
114.8200 49.5295
114.8300 58.4924
114.8400 77.3419
114.8500 47.5352
114.8600 60.2496
114.8700 49.5303
114.8800 55.3002
114.8900 53.5070
114.9000 41.8233
114.9100 56.4135
114.9200 55.9659
114.9300 60.0617
114.9400 61.9362
114.9500 45.7666
114.9600 67.4997
114.9700 55.2278
114.9800 53.5904
114.9900 60.2629
115.0000 52.4395
115.0100 61.4964
115.0200 56.6651
115.0300 45.2424
115.0400 36.6674
115.0500 44.1765
115.0600 56.2468
115.0700 50.5324
115.0800 49.4211
115.0900 53.3773
115.1000 46.6398
115.1100 53.8249
115.1200 62.5783
115.1300 51.9805
115.1400 52.4649
115.1500 45.9835
115.1600 58.8005
115.1700 65.7589
115.1800 46.8883
115.1900 61.8956
115.2000 55.5683
115.2100 53.5054
115.2200 51.9678
115.2300 49.9819
115.2400 51.1102
115.2500 44.2660
115.2600 50.8054
115.2700 56.1225
115.2800 54.0860
115.2900 57.1848
115.3000 52.8138
115.3100 55.0412
115.3200 50.9247
115.3300 39.9277
115.3400 53.9947
115.3500 43.7676
115.3600 42.1551
115.3700 45.1998
115.3800 51.1849
115.3900 47.3972
115.4000 52.6923
115.4100 57.3498
115.4200 55.7287
115.4300 51.2230
115.4400 42.7930
115.4500 39.9335
115.4600 40.6908
115.4700 57.7125
115.4800 50.1461
115.4900 54.4505
115.5000 45.1448
115.5100 50.1457
115.5200 47.9808
115.5300 50.2161
115.5400 58.5724
115.5500 52.2760
115.5600 54.6283
115.5700 52.2457
115.5800 67.3324
115.5900 52.5795
115.6000 38.0133
115.6100 61.0033
115.6200 61.6126
115.6300 31.8952
115.6400 51.9907
115.6500 47.9723
115.6600 49.8715
115.6700 44.4372
115.6800 51.9302
115.6900 64.8346
115.7000 61.6705
115.7100 58.6071
115.7200 52.8468
115.7300 58.5245
115.7400 50.7224
115.7500 49.9083
115.7600 61.9469
115.7700 56.5918
115.7800 52.6352
115.7900 69.9082
115.8000 49.6718
115.8100 53.8379
115.8200 48.6101
115.8300 49.4914
115.8400 59.9100
115.8500 53.6638
115.8600 58.3743
115.8700 56.7236
115.8800 49.2610
115.8900 49.6769
115.9000 46.9547
115.9100 52.5585
115.9200 50.7803
115.9300 43.9497
115.9400 50.4619
115.9500 47.9258
115.9600 58.7792
115.9700 50.5437
115.9800 48.2011
115.9900 49.5172
116.0000 56.1447
116.0100 59.7327
116.0200 49.6333
116.0300 50.8310
116.0400 34.7320
116.0500 42.3645
116.0600 39.6627
116.0700 52.8233
116.0800 51.5376
116.0900 61.9807
116.1000 59.4632
116.1100 51.1157
116.1200 52.9120
116.1300 56.4180
116.1400 41.7320
116.1500 59.4199
116.1600 49.5610
116.1700 48.5979
116.1800 48.0283
116.1900 59.0832
116.2000 49.7167
116.2100 58.8061
116.2200 53.9679
116.2300 58.8854
116.2400 55.8712
116.2500 59.5696
116.2600 61.5346
116.2700 63.6163
116.2800 71.8432
116.2900 58.5350
116.3000 61.1784
116.3100 58.7958
116.3200 45.3168
116.3300 55.0965
116.3400 48.5321
116.3500 43.7615
116.3600 52.2266
116.3700 56.0990
116.3800 41.2532
116.3900 47.5859
116.4000 45.8613
116.4100 57.3951
116.4200 54.2254
116.4300 52.0611
116.4400 52.5130
116.4500 58.8391
116.4600 49.4042
116.4700 56.2170
116.4800 54.6762
116.4900 62.1715
116.5000 54.5628
116.5100 54.1275
116.5200 55.4226
116.5300 55.0325
116.5400 63.2301
116.5500 72.5226
116.5600 50.1525
116.5700 63.2872
116.5800 50.7985
116.5900 54.7123
116.6000 44.8004
116.6100 53.3160
116.6200 50.2086
116.6300 53.6386
116.6400 39.3919
116.6500 57.9940
116.6600 51.6490
116.6700 44.3611
116.6800 58.4170
116.6900 53.7272
116.7000 61.3335
116.7100 57.1988
116.7200 47.0579
116.7300 44.1594
116.7400 43.4374
116.7500 63.1467
116.7600 48.5869
116.7700 64.1225
116.7800 45.5510
116.7900 50.2966
116.8000 56.1351
116.8100 56.5324
116.8200 57.8228
116.8300 53.7082
116.8400 48.9522
116.8500 54.4162
116.8600 51.5111
116.8700 47.2281
116.8800 53.1544
116.8900 37.9324
116.9000 44.5050
116.9100 56.1121
116.9200 63.3053
116.9300 48.6302
116.9400 55.3018
116.9500 54.6284
116.9600 61.2215
116.9700 57.9532
116.9800 52.2686
116.9900 42.2950
117.0000 52.7494
117.0100 57.8054
117.0200 59.3192
117.0300 53.3082
117.0400 51.9598
117.0500 46.6705
117.0600 59.1768
117.0700 43.5927
117.0800 54.9423
117.0900 44.3321
117.1000 47.3486
117.1100 41.6003
117.1200 44.2153
117.1300 49.7892
117.1400 45.0961
117.1500 49.2090
117.1600 45.7491
117.1700 48.0270
117.1800 55.1197
117.1900 47.9317
117.2000 52.9558
117.2100 62.4198
117.2200 52.0483
117.2300 51.5544
117.2400 51.3037
117.2500 54.0070
117.2600 45.4599
117.2700 46.2413
117.2800 54.8954
117.2900 46.0501
117.3000 59.2768
117.3100 46.8185
117.3200 44.1869
117.3300 45.3360
117.3400 46.6881
117.3500 47.4912
117.3600 52.9368
117.3700 61.8367
117.3800 71.9459
117.3900 52.4131
117.4000 51.4933
117.4100 48.6145
117.4200 49.6770
117.4300 50.9166
117.4400 55.9011
117.4500 56.3745
117.4600 60.7188
117.4700 56.2983
117.4800 43.2304
117.4900 53.5378
117.5000 56.3568
117.5100 50.8255
117.5200 50.3383
117.5300 45.2561
117.5400 53.0561
117.5500 49.9147
117.5600 46.8493
117.5700 48.0220
117.5800 48.2640
117.5900 55.2418
117.6000 57.6422
117.6100 51.1652
117.6200 38.2315
117.6300 55.3929
117.6400 50.4013
117.6500 46.8517
117.6600 57.7416
117.6700 48.4827
117.6800 44.5095
117.6900 52.8579
117.7000 38.0732
117.7100 63.9659
117.7200 55.1345
117.7300 59.2052
117.7400 47.3706
117.7500 61.4203
117.7600 45.6499
117.7700 60.7385
117.7800 57.1475
117.7900 48.1240
117.8000 51.8407
117.8100 52.7754
117.8200 54.2060
117.8300 44.6873
117.8400 62.7244
117.8500 49.0610
117.8600 49.9500
117.8700 47.5210
117.8800 49.1841
117.8900 56.7298
117.9000 42.7384
117.9100 53.5299
117.9200 51.3047
117.9300 45.1726
117.9400 65.2183
117.9500 43.5837
117.9600 63.7368
117.9700 53.7894
117.9800 43.7832
117.9900 49.5120
118.0000 60.6048
118.0100 45.6058
118.0200 44.6570
118.0300 57.2084
118.0400 47.4333
118.0500 49.7159
118.0600 59.5996
118.0700 64.5812
118.0800 41.2838
118.0900 45.2552
118.1000 44.4724
118.1100 40.0999
118.1200 47.6899
118.1300 65.9664
118.1400 39.6673
118.1500 55.6422
118.1600 50.8417
118.1700 62.8675
118.1800 46.4734
118.1900 49.8792
118.2000 48.8539
118.2100 57.9445
118.2200 49.8581
118.2300 48.7434
118.2400 54.0552
118.2500 44.6900
118.2600 48.2707
118.2700 59.1803
118.2800 52.0187
118.2900 64.9485
118.3000 56.1950
118.3100 45.0241
118.3200 50.0946
118.3300 52.3819
118.3400 50.2430
118.3500 53.7975
118.3600 48.7950
118.3700 54.1757
118.3800 44.5143
118.3900 47.0802
118.4000 52.1887
118.4100 54.6879
118.4200 53.8175
118.4300 52.5746
118.4400 51.1592
118.4500 52.6193
118.4600 53.6849
118.4700 56.9181
118.4800 50.3511
118.4900 59.0408
118.5000 54.1460
118.5100 47.8281
118.5200 43.3812
118.5300 39.3225
118.5400 67.6172
118.5500 57.0432
118.5600 57.6530
118.5700 48.3533
118.5800 46.1361
118.5900 50.5661
118.6000 42.3994
118.6100 44.0961
118.6200 51.2608
118.6300 48.5555
118.6400 46.6150
118.6500 58.8840
118.6600 50.6455
118.6700 50.8526
118.6800 57.5917
118.6900 41.7783
118.7000 49.6509
118.7100 50.3657
118.7200 64.4514
118.7300 47.4476
118.7400 54.9546
118.7500 49.1308
118.7600 45.1204
118.7700 54.9070
118.7800 41.1700
118.7900 56.9477
118.8000 49.9804
118.8100 59.3421
118.8200 41.5168
118.8300 55.4310
118.8400 49.0054
118.8500 51.3769
118.8600 44.9522
118.8700 54.7189
118.8800 47.7331
118.8900 47.1104
118.9000 59.0614
118.9100 48.2254
118.9200 57.5786
118.9300 51.1460
118.9400 46.0513
118.9500 50.8202
118.9600 47.7864
118.9700 46.4985
118.9800 55.4733
118.9900 44.6509
119.0000 54.0950
119.0100 41.7503
119.0200 35.3067
119.0300 49.6505
119.0400 47.7204
119.0500 45.0583
119.0600 53.7522
119.0700 51.4399
119.0800 52.7503
119.0900 65.0344
119.1000 51.3715
119.1100 49.6736
119.1200 48.9609
119.1300 54.6826
119.1400 59.3481
119.1500 50.5884
119.1600 49.1136
119.1700 62.9954
119.1800 54.9302
119.1900 59.1827
119.2000 58.4120
119.2100 48.6980
119.2200 41.8731
119.2300 53.2365
119.2400 53.3775
119.2500 55.9990
119.2600 51.7968
119.2700 50.6154
119.2800 58.9219
119.2900 48.5882
119.3000 42.0405
119.3100 55.1150
119.3200 40.2766
119.3300 43.1868
119.3400 61.9376
119.3500 43.1340
119.3600 45.8219
119.3700 52.9922
119.3800 46.7092
119.3900 48.2663
119.4000 55.4918
119.4100 45.2490
119.4200 60.2755
119.4300 48.1221
119.4400 42.7603
119.4500 50.2167
119.4600 42.1333
119.4700 44.4258
119.4800 38.5297
119.4900 49.7068
119.5000 53.1500
119.5100 60.6997
119.5200 66.3420
119.5300 46.4890
119.5400 42.3719
119.5500 54.0165
119.5600 46.4189
119.5700 53.5887
119.5800 52.3085
119.5900 53.7214
119.6000 55.1679
119.6100 55.1619
119.6200 50.1296
119.6300 60.6552
119.6400 51.1998
119.6500 51.8478
119.6600 41.8140
119.6700 53.1853
119.6800 51.5717
119.6900 58.8904
119.7000 47.3628
119.7100 41.7204
119.7200 46.6501
119.7300 59.4234
119.7400 62.1910
119.7500 61.4850
119.7600 46.4998
119.7700 42.6217
119.7800 45.3440
119.7900 55.0124
119.8000 50.5285
119.8100 45.1791
119.8200 50.8953
119.8300 39.3360
119.8400 53.7714
119.8500 43.7783
119.8600 49.6155
119.8700 49.4903
119.8800 53.4233
119.8900 48.6409
119.9000 50.4129
119.9100 49.1398
119.9200 43.2102
119.9300 44.7658
119.9400 40.7898
119.9500 48.5722
119.9600 57.9276
119.9700 52.2521
119.9800 49.7348
119.9900 45.3773
