#Collected Data-111
#Intensity_unit=counts
#Attenuator_coefficient=1.000000
40.0000 41.9691
40.0100 46.3703
40.0200 43.1942
40.0300 39.5971
40.0400 52.2238
40.0500 55.5697
40.0600 53.6819
40.0700 60.5826
40.0800 54.4235
40.0900 46.1136
40.1000 41.2157
40.1100 48.4988
40.1200 49.1270
40.1300 53.7604
40.1400 50.6454
40.1500 47.0549
40.1600 46.4229
40.1700 63.0732
40.1800 41.1392
40.1900 59.5590
40.2000 54.1959
40.2100 45.5858
40.2200 54.0391
40.2300 54.5022
40.2400 55.0553
40.2500 55.5212
40.2600 51.7538
40.2700 56.4572
40.2800 51.5303
40.2900 36.1554
40.3000 44.4964
40.3100 46.5047
40.3200 54.8859
40.3300 49.0374
40.3400 45.4532
40.3500 49.7321
40.3600 45.9005
40.3700 48.8796
40.3800 41.3920
40.3900 43.1193
40.4000 35.2484
40.4100 43.9798
40.4200 46.5027
40.4300 55.9243
40.4400 50.7809
40.4500 47.2419
40.4600 42.5139
40.4700 53.9874
40.4800 48.7185
40.4900 53.3456
40.5000 51.0788
40.5100 45.3959
40.5200 54.2181
40.5300 56.3485
40.5400 48.9301
40.5500 40.2531
40.5600 43.8047
40.5700 60.4048
40.5800 43.0793
40.5900 59.3755
40.6000 52.0369
40.6100 59.3814
40.6200 47.4837
40.6300 46.6645
40.6400 52.1638
40.6500 44.0933
40.6600 52.4248
40.6700 47.9178
40.6800 49.3811
40.6900 56.0898
40.7000 53.4623
40.7100 33.1576
40.7200 41.9320
40.7300 59.1995
40.7400 55.9014
40.7500 52.2313
40.7600 58.4783
40.7700 55.8859
40.7800 47.4329
40.7900 46.9766
40.8000 57.5454
40.8100 42.9902
40.8200 46.1022
40.8300 50.7053
40.8400 49.8546
40.8500 65.3532
40.8600 54.9311
40.8700 48.9371
40.8800 46.6329
40.8900 47.0904
40.9000 58.3379
40.9100 49.4958
40.9200 48.9104
40.9300 49.1730
40.9400 50.8721
40.9500 49.5552
40.9600 54.3421
40.9700 56.6942
40.9800 44.5900
40.9900 38.6317
41.0000 52.4164
41.0100 46.4759
41.0200 43.2698
41.0300 49.2960
41.0400 40.7665
41.0500 46.9404
41.0600 52.2505
41.0700 42.7613
41.0800 58.7438
41.0900 48.4830
41.1000 51.6438
41.1100 50.5363
41.1200 46.2801
41.1300 50.3630
41.1400 41.5658
41.1500 59.2509
41.1600 52.2668
41.1700 45.0505
41.1800 52.3147
41.1900 47.5804
41.2000 49.0812
41.2100 48.2173
41.2200 55.3370
41.2300 60.6313
41.2400 62.8623
41.2500 47.3747
41.2600 53.0655
41.2700 48.8447
41.2800 55.6269
41.2900 49.2915
41.3000 51.5222
41.3100 50.0029
41.3200 53.1491
41.3300 55.6829
41.3400 46.9980
41.3500 45.7111
41.3600 40.1768
41.3700 52.4283
41.3800 47.0434
41.3900 59.4317
41.4000 47.9979
41.4100 67.3173
41.4200 35.2282
41.4300 62.5509
41.4400 58.3369
41.4500 56.5095
41.4600 62.1012
41.4700 54.6040
41.4800 40.2018
41.4900 47.9111
41.5000 53.7169
41.5100 58.5594
41.5200 54.3508
41.5300 45.6765
41.5400 44.9503
41.5500 57.2566
41.5600 61.4381
41.5700 53.8056
41.5800 47.8650
41.5900 49.6337
41.6000 43.6582
41.6100 51.3035
41.6200 52.0142
41.6300 49.9380
41.6400 55.7435
41.6500 59.2871
41.6600 56.9167
41.6700 56.2877
41.6800 46.4714
41.6900 49.3064
41.7000 57.0789
41.7100 53.7346
41.7200 38.0030
41.7300 61.8597
41.7400 37.4737
41.7500 64.7880
41.7600 64.1258
41.7700 52.6943
41.7800 48.4897
41.7900 49.9114
41.8000 56.7913
41.8100 48.2612
41.8200 57.9781
41.8300 69.3909
41.8400 70.5291
41.8500 56.4779
41.8600 65.1543
41.8700 58.9694
41.8800 51.7508
41.8900 54.8491
41.9000 58.2916
41.9100 62.5554
41.9200 53.0317
41.9300 54.9909
41.9400 52.5785
41.9500 54.2191
41.9600 55.7361
41.9700 47.2785
41.9800 58.1534
41.9900 54.7330
42.0000 59.0157
42.0100 57.2102
42.0200 61.4881
42.0300 50.6431
42.0400 53.0883
42.0500 68.3298
42.0600 62.5946
42.0700 73.7938
42.0800 66.1147
42.0900 72.4450
42.1000 63.8170
42.1100 50.2063
42.1200 57.0233
42.1300 51.8662
42.1400 57.0768
42.1500 63.4587
42.1600 50.8018
42.1700 59.1822
42.1800 59.3231
42.1900 62.9355
42.2000 54.8515
42.2100 68.8560
42.2200 69.0204
42.2300 63.6960
42.2400 72.4314
42.2500 62.7657
42.2600 58.9507
42.2700 63.8007
42.2800 65.2663
42.2900 74.7917
42.3000 59.3512
42.3100 64.1445
42.3200 60.7061
42.3300 70.4099
42.3400 66.3285
42.3500 58.3161
42.3600 57.8592
42.3700 58.1796
42.3800 51.0194
42.3900 64.0408
42.4000 59.3615
42.4100 60.6153
42.4200 65.4128
42.4300 72.4622
42.4400 56.0806
42.4500 48.9110
42.4600 66.5636
42.4700 67.7047
42.4800 68.3380
42.4900 71.8591
42.5000 66.4802
42.5100 65.3986
42.5200 65.4271
42.5300 66.0870
42.5400 72.2225
42.5500 73.1575
42.5600 58.8765
42.5700 60.0366
42.5800 62.1139
42.5900 58.7921
42.6000 70.6590
42.6100 77.4407
42.6200 71.7845
42.6300 53.5717
42.6400 61.3786
42.6500 70.1814
42.6600 65.4475
42.6700 73.4025
42.6800 77.0742
42.6900 71.9221
42.7000 54.9634
42.7100 64.6870
42.7200 70.2343
42.7300 63.1951
42.7400 56.9108
42.7500 75.1280
42.7600 67.8450
42.7700 58.7595
42.7800 68.3841
42.7900 67.0058
42.8000 69.9141
42.8100 61.6334
42.8200 62.8728
42.8300 64.1199
42.8400 63.5871
42.8500 69.2725
42.8600 72.7759
42.8700 57.8741
42.8800 54.7768
42.8900 71.1622
42.9000 62.9668
42.9100 64.0905
42.9200 61.5806
42.9300 56.6752
42.9400 75.5777
42.9500 63.1740
42.9600 71.9621
42.9700 81.4703
42.9800 75.2285
42.9900 67.0306
43.0000 65.5773
43.0100 74.6601
43.0200 71.5480
43.0300 69.9822
43.0400 67.3276
43.0500 67.6834
43.0600 71.9738
43.0700 79.1995
43.0800 68.0078
43.0900 65.3054
43.1000 67.0735
43.1100 67.1775
43.1200 73.5133
43.1300 60.4962
43.1400 58.6527
43.1500 80.0943
43.1600 81.7334
43.1700 70.1095
43.1800 64.8205
43.1900 77.9651
43.2000 63.7975
43.2100 69.5776
43.2200 75.9527
43.2300 67.5877
43.2400 68.6885
43.2500 69.2744
43.2600 62.9730
43.2700 65.0257
43.2800 64.9987
43.2900 54.0460
43.3000 59.5813
43.3100 55.5855
43.3200 68.3487
43.3300 67.8355
43.3400 64.7548
43.3500 78.9196
43.3600 70.4264
43.3700 72.8588
43.3800 71.0894
43.3900 57.0062
43.4000 75.8241
43.4100 53.7058
43.4200 80.9915
43.4300 70.8220
43.4400 71.7940
43.4500 75.8167
43.4600 80.2898
43.4700 78.3766
43.4800 67.9961
43.4900 65.8205
43.5000 72.7226
43.5100 64.1804
43.5200 85.1785
43.5300 79.4475
43.5400 76.9822
43.5500 81.4880
43.5600 69.6364
43.5700 67.6673
43.5800 84.2226
43.5900 87.9576
43.6000 68.0488
43.6100 77.6305
43.6200 54.1514
43.6300 64.4048
43.6400 68.1574
43.6500 84.5210
43.6600 80.6835
43.6700 78.1425
43.6800 80.1085
43.6900 66.7608
43.7000 69.6210
43.7100 85.4935
43.7200 57.0074
43.7300 85.0900
43.7400 79.0910
43.7500 67.2605
43.7600 90.2459
43.7700 74.9559
43.7800 71.7066
43.7900 75.3403
43.8000 73.3421
43.8100 78.5179
43.8200 66.8079
43.8300 73.7716
43.8400 71.5223
43.8500 63.9363
43.8600 70.7072
43.8700 69.6626
43.8800 73.3279
43.8900 79.8814
43.9000 51.4522
43.9100 75.2079
43.9200 75.7792
43.9300 74.0238
43.9400 83.2025
43.9500 73.9523
43.9600 78.5967
43.9700 77.8779
43.9800 78.3611
43.9900 84.9990
44.0000 74.6476
44.0100 65.4041
44.0200 73.6929
44.0300 71.8309
44.0400 69.8501
44.0500 77.7467
44.0600 84.0056
44.0700 76.8319
44.0800 70.7262
44.0900 72.9426
44.1000 80.5482
44.1100 58.6297
44.1200 65.9530
44.1300 73.6531
44.1400 71.2660
44.1500 74.9042
44.1600 78.6168
44.1700 70.5767
44.1800 71.5531
44.1900 83.5650
44.2000 71.7315
44.2100 75.7748
44.2200 87.7574
44.2300 69.3311
44.2400 76.2092
44.2500 70.8542
44.2600 71.7030
44.2700 66.8236
44.2800 80.6618
44.2900 78.0573
44.3000 65.8282
44.3100 85.6639
44.3200 59.2980
44.3300 64.2521
44.3400 63.8506
44.3500 68.0934
44.3600 72.5712
44.3700 63.1987
44.3800 73.7537
44.3900 73.0442
44.4000 57.2231
44.4100 72.1357
44.4200 86.7510
44.4300 77.1041
44.4400 63.6756
44.4500 77.8350
44.4600 68.1772
44.4700 71.3020
44.4800 71.5144
44.4900 71.2827
44.5000 65.7361
44.5100 67.5717
44.5200 82.1579
44.5300 75.1799
44.5400 65.0595
44.5500 58.3757
44.5600 71.8720
44.5700 82.1316
44.5800 71.0519
44.5900 64.0772
44.6000 70.1433
44.6100 88.2782
44.6200 76.8277
44.6300 74.1777
44.6400 72.7210
44.6500 67.6970
44.6600 76.5051
44.6700 58.9710
44.6800 78.4205
44.6900 78.0210
44.7000 60.8785
44.7100 64.1029
44.7200 79.8616
44.7300 81.2337
44.7400 88.3382
44.7500 60.9198
44.7600 61.3831
44.7700 67.8334
44.7800 76.8155
44.7900 64.8570
44.8000 66.9968
44.8100 68.9840
44.8200 69.4402
44.8300 75.5506
44.8400 64.7216
44.8500 60.4277
44.8600 80.0843
44.8700 71.7135
44.8800 69.3353
44.8900 68.2617
44.9000 77.2554
44.9100 67.8134
44.9200 73.0611
44.9300 68.8013
44.9400 57.0191
44.9500 71.2985
44.9600 75.0247
44.9700 78.7301
44.9800 75.2001
44.9900 69.2893
45.0000 86.5434
45.0100 78.8972
45.0200 65.0010
45.0300 57.0970
45.0400 70.0675
45.0500 78.1483
45.0600 67.1579
45.0700 62.1896
45.0800 68.9003
45.0900 58.4653
45.1000 68.3670
45.1100 80.6510
45.1200 79.5816
45.1300 71.5811
45.1400 74.6123
45.1500 58.9796
45.1600 66.9841
45.1700 61.9142
45.1800 86.2048
45.1900 90.0042
45.2000 76.7126
45.2100 60.1236
45.2200 80.2179
45.2300 72.7320
45.2400 76.1629
45.2500 65.4863
45.2600 79.5363
45.2700 56.6085
45.2800 79.0685
45.2900 87.0058
45.3000 74.6919
45.3100 72.9804
45.3200 74.1183
45.3300 66.0863
45.3400 85.3757
45.3500 69.5687
45.3600 61.0361
45.3700 80.6218
45.3800 75.5676
45.3900 74.7924
45.4000 77.9494
45.4100 69.0508
45.4200 72.1219
45.4300 62.4296
45.4400 64.9457
45.4500 58.5013
45.4600 59.8331
45.4700 69.0530
45.4800 68.6120
45.4900 69.4759
45.5000 75.0841
45.5100 77.1139
45.5200 69.7762
45.5300 69.5024
45.5400 74.9489
45.5500 69.4174
45.5600 76.5997
45.5700 78.4194
45.5800 64.4349
45.5900 62.8360
45.6000 60.5622
45.6100 67.2186
45.6200 60.8196
45.6300 67.6786
45.6400 57.0998
45.6500 64.5019
45.6600 84.4327
45.6700 66.1079
45.6800 69.9880
45.6900 66.5091
45.7000 71.3252
45.7100 73.4074
45.7200 72.7145
45.7300 69.7155
45.7400 62.5506
45.7500 54.6425
45.7600 56.9125
45.7700 65.0701
45.7800 57.4484
45.7900 64.5335
45.8000 57.4374
45.8100 62.5014
45.8200 82.7513
45.8300 67.2869
45.8400 60.0008
45.8500 53.4481
45.8600 63.3117
45.8700 72.7065
45.8800 52.3567
45.8900 54.7697
45.9000 59.2717
45.9100 61.3304
45.9200 59.6950
45.9300 69.9152
45.9400 60.7325
45.9500 52.5296
45.9600 59.0668
45.9700 50.5651
45.9800 56.5783
45.9900 60.6167
46.0000 66.2284
46.0100 72.5194
46.0200 55.0519
46.0300 60.2705
46.0400 53.0792
46.0500 55.2777
46.0600 50.6666
46.0700 65.4346
46.0800 75.3639
46.0900 51.2410
46.1000 67.9093
46.1100 57.5312
46.1200 64.3315
46.1300 62.0033
46.1400 59.4757
46.1500 72.0162
46.1600 63.0877
46.1700 54.2516
46.1800 58.0490
46.1900 70.1507
46.2000 57.8593
46.2100 69.9715
46.2200 59.4607
46.2300 55.2810
46.2400 65.8983
46.2500 57.6061
46.2600 57.0806
46.2700 65.0931
46.2800 73.6785
46.2900 51.3770
46.3000 62.2219
46.3100 58.9682
46.3200 64.6004
46.3300 64.6934
46.3400 46.4004
46.3500 55.9048
46.3600 58.3040
46.3700 68.5466
46.3800 55.2020
46.3900 61.0098
46.4000 66.9092
46.4100 51.0789
46.4200 59.3281
46.4300 57.0863
46.4400 53.1841
46.4500 45.3949
46.4600 65.1992
46.4700 57.9134
46.4800 50.0817
46.4900 52.5145
46.5000 55.8741
46.5100 64.6373
46.5200 54.8571
46.5300 63.1517
46.5400 61.5759
46.5500 54.9791
46.5600 59.5106
46.5700 67.6031
46.5800 54.9949
46.5900 63.2556
46.6000 56.2313
46.6100 63.9765
46.6200 60.5176
46.6300 61.1045
46.6400 57.8077
46.6500 69.7963
46.6600 73.5087
46.6700 58.1116
46.6800 48.5025
46.6900 46.0240
46.7000 62.8676
46.7100 54.7021
46.7200 70.6577
46.7300 61.7195
46.7400 56.1460
46.7500 59.0583
46.7600 50.9498
46.7700 53.5767
46.7800 59.8604
46.7900 50.5090
46.8000 58.0040
46.8100 51.9133
46.8200 52.1332
46.8300 51.5910
46.8400 44.5694
46.8500 43.7178
46.8600 57.4972
46.8700 63.1911
46.8800 58.5928
46.8900 53.5413
46.9000 62.5391
46.9100 53.5630
46.9200 62.9428
46.9300 63.0982
46.9400 68.0887
46.9500 49.8456
46.9600 62.9786
46.9700 60.9005
46.9800 62.0662
46.9900 56.1534
47.0000 53.6162
47.0100 66.7687
47.0200 55.1102
47.0300 38.0140
47.0400 61.8294
47.0500 58.5979
47.0600 60.8818
47.0700 48.0158
47.0800 51.6786
47.0900 41.6602
47.1000 50.7996
47.1100 38.5661
47.1200 47.9575
47.1300 51.5860
47.1400 42.2267
47.1500 53.7243
47.1600 55.8884
47.1700 54.8524
47.1800 53.9739
47.1900 46.3052
47.2000 43.1257
47.2100 52.0371
47.2200 56.0411
47.2300 57.1041
47.2400 63.8322
47.2500 37.1112
47.2600 45.9005
47.2700 56.7536
47.2800 52.8955
47.2900 50.1203
47.3000 59.7927
47.3100 67.5138
47.3200 50.7619
47.3300 52.7178
47.3400 54.5714
47.3500 45.4481
47.3600 65.0572
47.3700 54.7878
47.3800 52.5830
47.3900 47.0649
47.4000 45.0623
47.4100 49.6595
47.4200 45.2797
47.4300 36.2339
47.4400 49.1942
47.4500 47.5838
47.4600 42.9987
47.4700 59.2133
47.4800 56.0726
47.4900 42.9459
47.5000 52.3675
47.5100 53.8137
47.5200 45.6047
47.5300 48.8580
47.5400 47.5436
47.5500 56.7304
47.5600 48.5652
47.5700 58.7392
47.5800 46.5281
47.5900 48.1695
47.6000 42.1388
47.6100 45.5327
47.6200 45.8533
47.6300 59.5333
47.6400 61.4207
47.6500 55.0244
47.6600 57.4614
47.6700 54.2863
47.6800 54.4529
47.6900 44.9735
47.7000 56.1867
47.7100 53.1547
47.7200 50.7627
47.7300 51.9847
47.7400 40.4122
47.7500 40.5230
47.7600 44.8424
47.7700 66.4996
47.7800 51.4552
47.7900 54.9387
47.8000 61.4100
47.8100 49.6669
47.8200 42.7890
47.8300 55.6503
47.8400 53.5627
47.8500 44.9497
47.8600 49.3798
47.8700 37.1166
47.8800 49.6870
47.8900 55.6572
47.9000 39.4800
47.9100 65.4017
47.9200 57.2030
47.9300 49.9673
47.9400 43.3573
47.9500 39.6641
47.9600 47.9109
47.9700 46.7283
47.9800 48.9538
47.9900 40.4843
48.0000 50.7392
48.0100 50.6776
48.0200 37.4046
48.0300 52.0065
48.0400 65.2622
48.0500 56.7830
48.0600 46.7582
48.0700 47.7033
48.0800 59.3574
48.0900 37.9386
48.1000 50.0078
48.1100 43.2092
48.1200 49.7389
48.1300 44.1058
48.1400 38.4265
48.1500 44.6393
48.1600 53.0658
48.1700 46.7269
48.1800 43.5639
48.1900 58.4344
48.2000 54.1805
48.2100 54.1096
48.2200 51.6764
48.2300 45.5347
48.2400 54.3967
48.2500 49.2068
48.2600 54.1090
48.2700 49.2742
48.2800 43.1383
48.2900 49.5763
48.3000 52.1028
48.3100 46.3153
48.3200 57.5588
48.3300 52.4441
48.3400 46.6802
48.3500 55.3197
48.3600 55.2152
48.3700 43.4797
48.3800 40.7072
48.3900 50.4471
48.4000 45.9139
48.4100 54.7559
48.4200 41.8429
48.4300 43.0955
48.4400 53.2125
48.4500 62.6499
48.4600 48.0329
48.4700 46.4440
48.4800 47.1950
48.4900 54.1480
48.5000 52.8101
48.5100 44.4494
48.5200 47.0781
48.5300 53.4210
48.5400 52.4208
48.5500 48.7067
48.5600 40.4976
48.5700 48.3709
48.5800 44.0276
48.5900 52.4054
48.6000 55.6862
48.6100 59.0920
48.6200 46.9560
48.6300 53.3988
48.6400 43.3100
48.6500 51.8578
48.6600 41.9264
48.6700 41.3351
48.6800 43.2962
48.6900 50.9530
48.7000 46.3728
48.7100 54.0009
48.7200 46.0933
48.7300 54.9314
48.7400 48.6109
48.7500 53.6599
48.7600 52.6177
48.7700 54.2061
48.7800 52.4208
48.7900 43.4903
48.8000 33.6636
48.8100 48.2594
48.8200 54.7567
48.8300 49.3256
48.8400 55.4115
48.8500 41.8439
48.8600 46.9515
48.8700 52.9324
48.8800 46.7344
48.8900 50.3127
48.9000 64.5244
48.9100 59.4635
48.9200 54.8707
48.9300 49.8271
48.9400 49.5099
48.9500 37.2548
48.9600 46.7691
48.9700 43.9143
48.9800 42.7000
48.9900 44.9233
49.0000 48.3055
49.0100 48.4793
49.0200 38.9746
49.0300 37.1923
49.0400 49.3285
49.0500 45.7112
49.0600 49.9854
49.0700 55.7837
49.0800 48.3652
49.0900 46.0603
49.1000 42.2301
49.1100 47.2069
49.1200 38.6420
49.1300 52.6420
49.1400 55.6573
49.1500 45.3009
49.1600 44.5813
49.1700 54.4824
49.1800 38.0635
49.1900 48.8179
49.2000 46.1444
49.2100 44.4802
49.2200 55.1627
49.2300 59.7240
49.2400 52.1524
49.2500 47.7949
49.2600 43.3224
49.2700 35.8514
49.2800 57.5959
49.2900 48.0926
49.3000 51.7226
49.3100 51.8908
49.3200 41.7753
49.3300 38.4813
49.3400 52.0904
49.3500 42.6740
49.3600 38.1116
49.3700 43.8161
49.3800 50.2367
49.3900 48.7953
49.4000 45.1697
49.4100 57.2706
49.4200 47.2577
49.4300 34.9299
49.4400 50.4828
49.4500 60.3566
49.4600 34.3869
49.4700 39.2857
49.4800 40.8032
49.4900 41.2924
49.5000 43.5062
49.5100 46.2959
49.5200 55.5559
49.5300 58.4559
49.5400 41.4711
49.5500 39.3409
49.5600 48.1508
49.5700 46.4718
49.5800 59.8045
49.5900 51.1292
49.6000 52.0105
49.6100 51.0235
49.6200 45.2787
49.6300 45.5742
49.6400 67.0990
49.6500 56.3314
49.6600 48.9679
49.6700 44.8276
49.6800 59.8446
49.6900 46.9861
49.7000 49.7169
49.7100 48.1582
49.7200 50.7937
49.7300 46.9203
49.7400 49.1634
49.7500 49.1401
49.7600 49.3615
49.7700 56.3483
49.7800 41.0198
49.7900 45.3582
49.8000 42.6491
49.8100 45.6512
49.8200 68.6665
49.8300 39.7009
49.8400 46.3665
49.8500 51.9374
49.8600 54.8442
49.8700 45.3284
49.8800 45.2951
49.8900 47.1931
49.9000 71.1158
49.9100 47.3508
49.9200 46.8443
49.9300 46.4152
49.9400 53.7375
49.9500 50.9588
49.9600 53.1987
49.9700 54.0660
49.9800 51.3580
49.9900 42.8930
50.0000 52.4303
50.0100 48.0095
50.0200 43.7998
50.0300 51.2422
50.0400 51.1000
50.0500 50.0890
50.0600 47.5131
50.0700 51.4403
50.0800 54.8071
50.0900 46.7151
50.1000 51.0243
50.1100 47.8555
50.1200 53.3622
50.1300 61.6759
50.1400 63.9745
50.1500 40.4913
50.1600 49.3626
50.1700 39.5589
50.1800 53.1583
50.1900 57.4537
50.2000 48.6945
50.2100 36.4163
50.2200 38.0107
50.2300 47.7830
50.2400 45.6689
50.2500 47.0658
50.2600 47.2387
50.2700 51.2457
50.2800 51.9712
50.2900 44.3085
50.3000 47.6549
50.3100 46.9316
50.3200 40.8215
50.3300 47.4735
50.3400 49.9799
50.3500 47.0312
50.3600 44.7040
50.3700 44.9570
50.3800 54.5199
50.3900 52.9003
50.4000 49.3477
50.4100 58.7436
50.4200 52.5441
50.4300 33.9916
50.4400 46.6086
50.4500 52.5740
50.4600 43.7321
50.4700 50.6943
50.4800 54.7287
50.4900 54.2136
50.5000 61.0309
50.5100 38.7565
50.5200 37.4016
50.5300 59.7505
50.5400 44.2726
50.5500 59.6746
50.5600 44.3165
50.5700 44.7594
50.5800 51.0854
50.5900 50.5847
50.6000 35.0232
50.6100 38.9846
50.6200 47.5388
50.6300 52.4916
50.6400 50.8069
50.6500 56.7915
50.6600 46.6628
50.6700 39.6644
50.6800 55.7357
50.6900 51.4158
50.7000 44.9599
50.7100 48.6375
50.7200 48.6369
50.7300 45.1406
50.7400 61.6099
50.7500 40.8587
50.7600 48.2092
50.7700 60.1137
50.7800 52.0257
50.7900 39.1895
50.8000 49.2416
50.8100 49.8011
50.8200 52.0981
50.8300 56.6240
50.8400 53.5965
50.8500 54.0180
50.8600 40.5681
50.8700 44.4239
50.8800 40.8120
50.8900 38.5955
50.9000 37.5205
50.9100 42.8701
50.9200 32.0188
50.9300 50.2654
50.9400 44.4877
50.9500 51.3659
50.9600 47.4094
50.9700 44.3962
50.9800 40.9409
50.9900 39.4008
51.0000 53.6505
51.0100 49.3775
51.0200 44.5837
51.0300 43.0410
51.0400 46.8214
51.0500 52.1380
51.0600 40.4129
51.0700 45.9925
51.0800 51.9693
51.0900 44.9232
51.1000 46.0261
51.1100 49.3209
51.1200 54.1001
51.1300 48.2981
51.1400 45.5759
51.1500 45.0965
51.1600 46.1132
51.1700 48.3252
51.1800 51.7520
51.1900 49.8384
51.2000 53.1409
51.2100 46.2368
51.2200 46.9906
51.2300 54.2320
51.2400 50.4462
51.2500 45.5763
51.2600 48.6836
51.2700 45.3204
51.2800 34.9315
51.2900 57.7409
51.3000 52.1296
51.3100 40.2801
51.3200 45.9486
51.3300 37.2229
51.3400 44.4943
51.3500 48.3349
51.3600 55.9206
51.3700 38.6686
51.3800 47.6938
51.3900 52.1386
51.4000 46.9290
51.4100 48.4110
51.4200 46.2230
51.4300 48.3946
51.4400 51.3472
51.4500 49.4811
51.4600 55.7159
51.4700 41.1204
51.4800 46.1857
51.4900 60.2162
51.5000 47.0110
51.5100 37.2467
51.5200 48.9402
51.5300 42.4428
51.5400 45.1416
51.5500 45.8032
51.5600 45.9188
51.5700 34.3814
51.5800 36.3079
51.5900 38.6328
51.6000 39.7256
51.6100 44.5395
51.6200 52.6945
51.6300 50.4570
51.6400 54.1989
51.6500 48.3527
51.6600 36.4090
51.6700 52.2506
51.6800 47.0916
51.6900 49.7243
51.7000 64.5554
51.7100 41.0444
51.7200 46.2357
51.7300 46.2352
51.7400 51.0863
51.7500 60.8527
51.7600 59.4442
51.7700 45.0534
51.7800 42.4965
51.7900 36.9262
51.8000 38.8140
51.8100 53.3921
51.8200 42.1029
51.8300 50.7964
51.8400 42.1107
51.8500 55.8507
51.8600 45.8062
51.8700 36.9958
51.8800 47.1249
51.8900 43.1053
51.9000 44.3373
51.9100 45.8661
51.9200 53.4406
51.9300 35.6979
51.9400 39.1784
51.9500 47.6325
51.9600 47.1635
51.9700 57.2787
51.9800 52.2904
51.9900 45.3037
52.0000 49.6563
52.0100 64.0722
52.0200 56.1956
52.0300 56.0792
52.0400 55.7822
52.0500 38.6506
52.0600 42.3553
52.0700 43.7504
52.0800 49.1116
52.0900 48.3819
52.1000 60.6792
52.1100 56.6229
52.1200 56.9285
52.1300 44.9659
52.1400 43.8509
52.1500 50.1286
52.1600 44.9377
52.1700 49.9235
52.1800 46.8420
52.1900 51.5398
52.2000 44.1146
52.2100 42.7849
52.2200 47.0706
52.2300 56.8796
52.2400 46.1025
52.2500 46.3268
52.2600 44.0840
52.2700 55.3810
52.2800 48.1290
52.2900 42.3596
52.3000 48.7264
52.3100 56.1867
52.3200 64.5153
52.3300 43.3029
52.3400 43.6530
52.3500 46.7959
52.3600 47.5313
52.3700 58.3102
52.3800 49.1983
52.3900 56.7548
52.4000 51.1760
52.4100 53.6733
52.4200 58.8533
52.4300 47.9938
52.4400 54.6490
52.4500 39.3441
52.4600 53.5312
52.4700 44.0433
52.4800 51.9315
52.4900 57.4775
52.5000 55.1158
52.5100 44.9073
52.5200 43.1485
52.5300 54.9736
52.5400 30.9630
52.5500 40.8242
52.5600 58.7323
52.5700 53.9226
52.5800 39.3222
52.5900 46.6203
52.6000 50.1135
52.6100 58.9924
52.6200 49.3782
52.6300 44.0840
52.6400 47.0194
52.6500 44.7727
52.6600 41.5693
52.6700 52.3616
52.6800 44.4298
52.6900 41.4071
52.7000 47.5157
52.7100 53.1803
52.7200 52.9011
52.7300 48.8103
52.7400 46.2850
52.7500 53.9386
52.7600 50.8516
52.7700 48.2842
52.7800 46.7658
52.7900 48.5925
52.8000 52.3392
52.8100 48.2239
52.8200 45.9920
52.8300 49.8053
52.8400 45.0886
52.8500 54.9414
52.8600 48.4236
52.8700 52.5216
52.8800 49.0031
52.8900 49.8582
52.9000 48.5796
52.9100 43.2056
52.9200 49.1544
52.9300 53.0004
52.9400 42.1496
52.9500 40.8988
52.9600 55.4551
52.9700 56.8072
52.9800 56.1813
52.9900 40.4887
53.0000 41.0721
53.0100 48.1405
53.0200 43.1396
53.0300 54.8252
53.0400 49.3258
53.0500 49.0660
53.0600 45.9627
53.0700 47.7392
53.0800 53.2855
53.0900 53.8146
53.1000 48.8697
53.1100 52.5442
53.1200 51.1777
53.1300 42.3096
53.1400 53.2809
53.1500 45.0419
53.1600 47.6847
53.1700 46.0096
53.1800 39.5745
53.1900 57.2105
53.2000 52.5621
53.2100 52.7974
53.2200 40.8067
53.2300 44.6406
53.2400 48.0060
53.2500 37.2992
53.2600 38.9652
53.2700 39.3558
53.2800 49.6690
53.2900 58.0062
53.3000 43.1259
53.3100 44.5511
53.3200 47.0638
53.3300 45.1540
53.3400 43.5111
53.3500 48.0835
53.3600 54.7095
53.3700 42.5606
53.3800 47.3900
53.3900 49.4546
53.4000 56.7679
53.4100 44.5642
53.4200 32.2327
53.4300 45.3769
53.4400 55.4679
53.4500 56.5172
53.4600 49.3248
53.4700 50.8692
53.4800 56.1884
53.4900 39.6897
53.5000 50.4896
53.5100 40.4117
53.5200 49.6147
53.5300 49.4426
53.5400 52.7693
53.5500 43.5562
53.5600 54.5562
53.5700 56.9035
53.5800 48.9186
53.5900 44.5707
53.6000 46.9147
53.6100 40.0014
53.6200 49.8329
53.6300 52.4068
53.6400 47.9897
53.6500 45.2306
53.6600 47.6863
53.6700 46.8221
53.6800 39.4112
53.6900 38.9488
53.7000 35.5631
53.7100 50.4692
53.7200 43.1080
53.7300 44.1657
53.7400 60.9440
53.7500 36.7772
53.7600 42.2709
53.7700 49.7019
53.7800 42.6221
53.7900 33.3406
53.8000 29.4169
53.8100 50.7300
53.8200 35.7503
53.8300 38.8261
53.8400 50.4624
53.8500 62.4482
53.8600 55.7044
53.8700 45.0803
53.8800 40.8934
53.8900 47.5615
53.9000 47.4929
53.9100 49.2461
53.9200 45.7236
53.9300 43.8915
53.9400 36.0547
53.9500 50.3467
53.9600 44.2667
53.9700 33.0083
53.9800 53.3816
53.9900 47.0352
54.0000 42.2225
54.0100 51.9818
54.0200 53.6211
54.0300 58.0692
54.0400 44.4287
54.0500 52.9491
54.0600 48.5488
54.0700 45.0412
54.0800 55.0125
54.0900 43.8140
54.1000 39.5696
54.1100 52.1695
54.1200 45.6454
54.1300 55.0473
54.1400 60.8119
54.1500 54.5535
54.1600 56.0380
54.1700 47.5924
54.1800 45.5268
54.1900 41.1169
54.2000 60.6326
54.2100 48.7952
54.2200 43.0876
54.2300 52.4092
54.2400 59.0839
54.2500 51.6773
54.2600 43.7887
54.2700 46.1403
54.2800 51.7986
54.2900 54.1682
54.3000 45.5582
54.3100 50.8001
54.3200 48.7671
54.3300 48.4901
54.3400 38.8670
54.3500 52.9458
54.3600 50.1963
54.3700 56.4266
54.3800 33.5326
54.3900 41.8139
54.4000 50.5513
54.4100 56.9750
54.4200 52.6368
54.4300 54.9605
54.4400 47.1421
54.4500 49.7230
54.4600 45.5635
54.4700 47.4960
54.4800 47.6176
54.4900 41.6578
54.5000 33.6297
54.5100 35.8722
54.5200 50.8849
54.5300 43.4725
54.5400 45.6961
54.5500 48.6931
54.5600 40.0638
54.5700 42.4885
54.5800 37.5974
54.5900 50.4386
54.6000 42.1969
54.6100 41.6842
54.6200 46.7843
54.6300 54.8846
54.6400 50.1110
54.6500 55.1254
54.6600 54.7417
54.6700 45.0860
54.6800 60.6775
54.6900 38.1067
54.7000 44.8249
54.7100 46.2756
54.7200 49.9427
54.7300 46.5694
54.7400 43.8739
54.7500 58.5632
54.7600 44.7487
54.7700 52.0879
54.7800 40.0247
54.7900 60.3360
54.8000 50.5778
54.8100 49.1866
54.8200 50.0559
54.8300 55.1821
54.8400 50.4445
54.8500 45.2836
54.8600 61.5080
54.8700 48.9719
54.8800 62.7768
54.8900 55.9100
54.9000 52.5082
54.9100 44.3662
54.9200 56.0241
54.9300 55.0698
54.9400 44.2046
54.9500 53.1106
54.9600 46.4703
54.9700 44.4256
54.9800 54.5992
54.9900 39.6344
55.0000 42.3096
55.0100 57.0441
55.0200 51.9533
55.0300 52.6611
55.0400 58.3868
55.0500 52.4980
55.0600 48.7575
55.0700 41.0159
55.0800 49.2010
55.0900 47.5189
55.1000 46.9519
55.1100 46.3972
55.1200 50.0272
55.1300 45.7079
55.1400 42.9164
55.1500 42.3009
55.1600 52.5985
55.1700 44.5385
55.1800 50.8152
55.1900 55.7587
55.2000 49.9475
55.2100 45.7484
55.2200 41.4961
55.2300 48.8909
55.2400 52.8529
55.2500 52.2195
55.2600 51.9434
55.2700 41.3695
55.2800 49.1805
55.2900 52.4530
55.3000 46.7951
55.3100 50.9964
55.3200 59.0236
55.3300 55.7429
55.3400 42.1381
55.3500 51.4836
55.3600 54.3748
55.3700 48.8553
55.3800 53.8941
55.3900 48.4264
55.4000 41.7351
55.4100 51.4605
55.4200 45.8425
55.4300 44.2732
55.4400 46.1254
55.4500 48.0217
55.4600 47.6063
55.4700 43.9236
55.4800 48.7084
55.4900 50.7353
55.5000 51.4005
55.5100 42.3662
55.5200 43.6010
55.5300 36.3056
55.5400 45.6247
55.5500 48.1385
55.5600 37.8703
55.5700 49.2067
55.5800 56.8005
55.5900 50.4824
55.6000 51.6411
55.6100 47.1539
55.6200 41.2227
55.6300 54.4472
55.6400 44.5994
55.6500 67.3600
55.6600 53.0970
55.6700 46.1270
55.6800 54.4792
55.6900 50.6663
55.7000 48.8522
55.7100 50.0344
55.7200 43.5976
55.7300 41.1554
55.7400 49.6633
55.7500 44.4246
55.7600 52.4949
55.7700 39.5550
55.7800 54.2072
55.7900 44.2420
55.8000 40.5903
55.8100 50.5476
55.8200 42.1666
55.8300 43.8407
55.8400 46.9440
55.8500 33.1593
55.8600 46.4395
55.8700 59.7244
55.8800 56.0636
55.8900 55.6390
55.9000 47.2566
55.9100 42.0136
55.9200 51.9428
55.9300 48.1965
55.9400 50.8509
55.9500 56.9500
55.9600 44.7048
55.9700 54.0029
55.9800 57.8084
55.9900 58.7762
56.0000 45.4307
56.0100 55.7796
56.0200 49.8911
56.0300 42.5726
56.0400 51.0078
56.0500 44.9545
56.0600 53.4396
56.0700 32.5155
56.0800 45.2747
56.0900 43.2317
56.1000 45.3982
56.1100 60.6600
56.1200 53.9977
56.1300 53.1203
56.1400 53.9547
56.1500 46.7288
56.1600 59.9838
56.1700 54.3894
56.1800 46.8173
56.1900 45.0371
56.2000 46.3132
56.2100 62.6303
56.2200 46.0406
56.2300 49.0795
56.2400 41.8882
56.2500 39.9439
56.2600 57.7132
56.2700 44.2656
56.2800 64.0980
56.2900 53.5943
56.3000 50.9172
56.3100 37.0734
56.3200 47.0000
56.3300 52.5272
56.3400 44.8752
56.3500 50.4558
56.3600 40.8246
56.3700 42.6615
56.3800 47.7217
56.3900 51.4807
56.4000 42.4934
56.4100 48.1095
56.4200 46.9604
56.4300 54.3591
56.4400 46.2075
56.4500 42.1217
56.4600 51.1333
56.4700 56.7257
56.4800 37.8392
56.4900 51.4051
56.5000 45.8180
56.5100 49.7609
56.5200 48.4175
56.5300 50.1718
56.5400 42.1617
56.5500 41.4483
56.5600 43.1414
56.5700 49.2922
56.5800 46.4880
56.5900 36.2920
56.6000 37.5806
56.6100 52.6585
56.6200 42.7859
56.6300 43.6343
56.6400 42.3270
56.6500 44.5533
56.6600 46.3451
56.6700 58.5037
56.6800 52.3549
56.6900 47.7111
56.7000 42.8452
56.7100 49.1412
56.7200 46.2138
56.7300 35.3348
56.7400 52.4808
56.7500 47.5242
56.7600 43.7883
56.7700 45.1989
56.7800 36.1441
56.7900 42.3263
56.8000 46.4651
56.8100 38.1762
56.8200 48.9576
56.8300 48.8738
56.8400 57.3310
56.8500 43.7814
56.8600 42.9687
56.8700 42.2159
56.8800 52.7701
56.8900 47.7812
56.9000 54.1557
56.9100 51.8929
56.9200 54.2553
56.9300 51.6433
56.9400 44.2671
56.9500 50.9047
56.9600 48.7325
56.9700 51.3208
56.9800 44.3133
56.9900 36.8023
57.0000 51.8501
57.0100 50.0492
57.0200 45.8935
57.0300 54.0771
57.0400 56.6521
57.0500 50.6138
57.0600 46.7365
57.0700 48.8872
57.0800 62.0730
57.0900 47.6230
57.1000 44.8889
57.1100 35.2386
57.1200 53.9505
57.1300 50.6987
57.1400 48.5517
57.1500 55.3924
57.1600 40.9559
57.1700 41.4262
57.1800 42.6539
57.1900 42.2127
57.2000 51.3948
57.2100 42.0636
57.2200 55.8643
57.2300 50.3086
57.2400 54.8589
57.2500 45.0468
57.2600 52.5177
57.2700 45.7416
57.2800 50.5741
57.2900 45.7683
57.3000 44.2475
57.3100 41.5982
57.3200 48.7402
57.3300 55.8007
57.3400 55.1982
57.3500 44.4038
57.3600 50.0578
57.3700 39.4407
57.3800 49.4011
57.3900 37.4528
57.4000 42.7893
57.4100 49.0803
57.4200 44.7643
57.4300 58.8115
57.4400 52.8254
57.4500 37.2046
57.4600 47.6638
57.4700 38.1601
57.4800 42.2302
57.4900 51.3110
57.5000 55.1861
57.5100 49.1182
57.5200 47.9839
57.5300 54.1923
57.5400 53.7685
57.5500 47.7729
57.5600 37.3383
57.5700 35.2702
57.5800 34.7498
57.5900 44.0372
57.6000 53.8583
57.6100 44.2219
57.6200 44.5100
57.6300 39.8723
57.6400 52.5428
57.6500 39.2612
57.6600 40.2929
57.6700 46.5946
57.6800 53.6529
57.6900 53.7151
57.7000 48.6174
57.7100 47.6188
57.7200 44.2695
57.7300 45.2276
57.7400 40.8892
57.7500 45.4004
57.7600 52.9656
57.7700 48.7297
57.7800 50.8942
57.7900 47.4834
57.8000 43.5511
57.8100 46.7235
57.8200 52.3596
57.8300 43.0911
57.8400 52.8323
57.8500 52.9586
57.8600 44.6088
57.8700 53.0427
57.8800 44.7589
57.8900 42.3111
57.9000 43.8982
57.9100 49.7000
57.9200 40.4618
57.9300 50.4775
57.9400 41.4884
57.9500 54.4891
57.9600 42.6460
57.9700 48.6522
57.9800 49.9853
57.9900 49.4976
58.0000 42.0249
58.0100 48.0011
58.0200 47.3268
58.0300 57.9720
58.0400 60.7113
58.0500 34.3485
58.0600 56.2378
58.0700 47.5756
58.0800 41.6885
58.0900 43.0616
58.1000 40.8544
58.1100 50.3899
58.1200 59.9386
58.1300 51.4413
58.1400 49.1423
58.1500 41.7938
58.1600 51.8185
58.1700 39.7683
58.1800 28.0022
58.1900 48.0806
58.2000 44.8158
58.2100 54.7793
58.2200 47.1042
58.2300 58.5587
58.2400 53.9484
58.2500 48.6480
58.2600 54.0202
58.2700 50.0311
58.2800 49.6576
58.2900 39.3425
58.3000 60.2805
58.3100 51.7380
58.3200 42.4976
58.3300 51.8984
58.3400 54.1583
58.3500 49.6965
58.3600 59.0955
58.3700 52.2408
58.3800 51.5054
58.3900 59.8974
58.4000 36.5221
58.4100 47.4321
58.4200 37.4744
58.4300 48.3602
58.4400 53.8821
58.4500 51.9278
58.4600 58.8995
58.4700 42.3930
58.4800 42.4782
58.4900 46.2228
58.5000 46.4657
58.5100 45.2520
58.5200 42.7240
58.5300 40.0484
58.5400 54.4726
58.5500 51.0241
58.5600 56.2702
58.5700 43.5530
58.5800 41.6487
58.5900 46.4597
58.6000 38.6908
58.6100 37.2202
58.6200 46.1543
58.6300 53.7580
58.6400 58.0277
58.6500 50.0435
58.6600 50.7271
58.6700 48.4781
58.6800 59.7182
58.6900 56.8468
58.7000 57.3853
58.7100 41.9908
58.7200 56.2734
58.7300 46.5487
58.7400 49.5834
58.7500 51.4097
58.7600 43.4277
58.7700 46.5239
58.7800 52.9017
58.7900 40.8138
58.8000 43.4803
58.8100 40.4959
58.8200 42.6116
58.8300 56.5305
58.8400 45.9154
58.8500 49.9005
58.8600 48.2163
58.8700 43.3794
58.8800 37.3429
58.8900 47.8183
58.9000 47.8533
58.9100 46.3676
58.9200 43.1172
58.9300 53.3125
58.9400 47.9071
58.9500 56.1736
58.9600 45.1627
58.9700 45.4552
58.9800 51.5512
58.9900 47.8794
59.0000 48.9167
59.0100 45.4863
59.0200 60.3569
59.0300 59.7851
59.0400 56.2860
59.0500 53.0271
59.0600 48.7757
59.0700 39.7577
59.0800 45.8055
59.0900 32.7672
59.1000 43.8993
59.1100 43.5283
59.1200 56.4559
59.1300 35.5666
59.1400 49.8491
59.1500 48.2606
59.1600 57.5167
59.1700 61.6646
59.1800 45.7030
59.1900 54.4222
59.2000 49.5496
59.2100 43.6690
59.2200 54.3615
59.2300 43.4100
59.2400 45.2531
59.2500 37.3121
59.2600 37.5714
59.2700 54.9318
59.2800 45.8883
59.2900 47.9046
59.3000 43.6311
59.3100 47.7392
59.3200 54.7311
59.3300 43.9541
59.3400 51.7379
59.3500 47.9381
59.3600 33.8100
59.3700 45.1167
59.3800 43.2240
59.3900 44.0255
59.4000 54.9357
59.4100 48.5412
59.4200 49.2439
59.4300 40.0642
59.4400 44.0465
59.4500 40.0465
59.4600 51.8045
59.4700 58.6786
59.4800 62.8158
59.4900 43.4683
59.5000 49.6857
59.5100 43.0138
59.5200 38.0672
59.5300 47.6645
59.5400 36.8256
59.5500 49.0930
59.5600 48.9752
59.5700 46.7080
59.5800 43.4912
59.5900 52.5587
59.6000 50.9669
59.6100 40.5597
59.6200 42.3956
59.6300 48.9879
59.6400 37.8191
59.6500 48.6966
59.6600 35.8402
59.6700 41.0511
59.6800 42.4091
59.6900 50.8381
59.7000 49.3573
59.7100 44.3143
59.7200 49.5148
59.7300 48.9503
59.7400 43.4929
59.7500 56.9666
59.7600 49.5590
59.7700 34.4216
59.7800 45.6474
59.7900 38.8461
59.8000 42.1210
59.8100 42.3858
59.8200 42.2333
59.8300 41.2538
59.8400 38.6065
59.8500 42.3189
59.8600 47.5380
59.8700 58.8792
59.8800 50.4253
59.8900 42.3410
59.9000 41.8934
59.9100 46.5063
59.9200 42.3106
59.9300 47.8962
59.9400 48.0357
59.9500 57.0087
59.9600 48.7676
59.9700 43.3967
59.9800 49.2560
59.9900 42.0740
60.0000 52.5332
60.0100 69.8704
60.0200 55.0628
60.0300 43.6049
60.0400 43.8569
60.0500 47.7449
60.0600 47.6077
60.0700 46.0769
60.0800 61.6946
60.0900 50.7600
60.1000 53.4135
60.1100 55.8920
60.1200 61.5586
60.1300 51.5385
60.1400 49.2072
60.1500 43.0916
60.1600 49.1474
60.1700 62.7877
60.1800 57.6528
60.1900 52.4441
60.2000 46.9932
60.2100 54.0730
60.2200 44.7073
60.2300 53.3217
60.2400 62.4565
60.2500 47.0029
60.2600 58.0207
60.2700 56.1557
60.2800 46.7341
60.2900 54.9713
60.3000 44.8762
60.3100 40.4089
60.3200 50.0462
60.3300 44.6017
60.3400 37.5487
60.3500 34.1191
60.3600 52.4777
60.3700 41.3908
60.3800 43.4937
60.3900 53.5706
60.4000 51.3551
60.4100 45.7457
60.4200 50.3790
60.4300 50.0623
60.4400 46.0496
60.4500 47.4737
60.4600 55.8014
60.4700 55.1448
60.4800 55.2278
60.4900 54.4200
60.5000 46.9916
60.5100 51.8527
60.5200 46.5703
60.5300 53.8126
60.5400 49.7206
60.5500 50.5070
60.5600 44.0857
60.5700 47.7653
60.5800 47.7543
60.5900 51.2256
60.6000 51.2996
60.6100 46.0157
60.6200 38.2545
60.6300 34.3113
60.6400 42.7094
60.6500 34.6941
60.6600 48.5945
60.6700 40.2714
60.6800 42.8784
60.6900 33.6894
60.7000 57.7727
60.7100 46.9666
60.7200 35.3462
60.7300 36.8344
60.7400 40.4384
60.7500 40.8052
60.7600 45.9401
60.7700 51.0744
60.7800 47.7870
60.7900 53.7650
60.8000 44.8461
60.8100 52.2657
60.8200 47.3878
60.8300 48.1580
60.8400 53.4394
60.8500 52.4869
60.8600 44.8925
60.8700 43.9887
60.8800 45.5528
60.8900 42.0722
60.9000 41.3809
60.9100 45.0027
60.9200 43.0009
60.9300 47.7510
60.9400 34.4071
60.9500 37.8250
60.9600 44.0652
60.9700 46.0974
60.9800 59.5997
60.9900 53.8249
61.0000 55.0048
61.0100 57.5433
61.0200 54.4977
61.0300 32.3857
61.0400 41.5289
61.0500 40.0954
61.0600 44.5020
61.0700 45.3462
61.0800 44.5382
61.0900 39.7293
61.1000 55.7700
61.1100 43.1030
61.1200 42.7199
61.1300 46.3388
61.1400 40.8583
61.1500 52.2457
61.1600 41.2310
61.1700 42.9708
61.1800 45.1079
61.1900 54.0902
61.2000 54.4550
61.2100 39.1904
61.2200 42.3480
61.2300 31.3313
61.2400 54.1111
61.2500 42.6551
61.2600 52.4398
61.2700 44.9127
61.2800 42.7341
61.2900 43.2558
61.3000 45.0253
61.3100 47.8863
61.3200 53.3675
61.3300 55.7219
61.3400 43.2265
61.3500 52.7497
61.3600 52.8006
61.3700 57.0564
61.3800 56.8841
61.3900 48.4140
61.4000 41.5336
61.4100 57.0138
61.4200 54.7704
61.4300 49.4259
61.4400 49.7537
61.4500 48.4344
61.4600 49.2721
61.4700 40.3633
61.4800 55.1049
61.4900 46.2988
61.5000 49.4065
61.5100 50.7920
61.5200 46.3791
61.5300 50.2217
61.5400 56.1984
61.5500 50.5243
61.5600 44.9614
61.5700 45.0154
61.5800 37.1226
61.5900 44.7259
61.6000 50.6674
61.6100 37.4582
61.6200 48.2800
61.6300 40.9926
61.6400 52.9143
61.6500 49.7441
61.6600 51.4337
61.6700 46.2944
61.6800 61.5580
61.6900 55.9838
61.7000 55.6159
61.7100 45.0349
61.7200 41.6696
61.7300 51.3253
61.7400 54.9260
61.7500 48.6757
61.7600 42.8337
61.7700 45.6125
61.7800 46.8525
61.7900 61.5047
61.8000 45.5465
61.8100 44.4092
61.8200 53.9114
61.8300 49.1477
61.8400 52.7719
61.8500 43.6904
61.8600 52.2185
61.8700 46.3894
61.8800 42.6533
61.8900 40.5571
61.9000 52.2737
61.9100 46.1284
61.9200 58.0968
61.9300 54.7540
61.9400 58.9937
61.9500 40.8086
61.9600 37.3941
61.9700 43.0457
61.9800 46.5792
61.9900 49.8416
62.0000 58.4025
62.0100 49.0372
62.0200 47.8861
62.0300 53.2525
62.0400 38.3388
62.0500 53.4024
62.0600 63.0214
62.0700 44.9960
62.0800 46.9832
62.0900 57.9978
62.1000 48.3704
62.1100 53.4812
62.1200 45.2795
62.1300 41.9123
62.1400 57.9353
62.1500 35.3363
62.1600 48.1780
62.1700 44.5076
62.1800 53.6953
62.1900 52.2378
62.2000 44.1430
62.2100 51.1111
62.2200 52.6192
62.2300 47.4202
62.2400 56.1787
62.2500 54.1791
62.2600 52.1115
62.2700 54.6951
62.2800 51.5897
62.2900 56.0774
62.3000 46.2383
62.3100 65.7958
62.3200 48.3552
62.3300 55.0448
62.3400 41.3856
62.3500 37.9672
62.3600 33.9315
62.3700 41.0249
62.3800 45.6398
62.3900 33.8947
62.4000 36.5999
62.4100 38.4469
62.4200 36.8107
62.4300 46.7736
62.4400 54.3213
62.4500 50.3815
62.4600 57.0573
62.4700 50.6792
62.4800 45.5114
62.4900 46.3294
62.5000 53.7789
62.5100 44.7207
62.5200 51.2418
62.5300 55.1020
62.5400 55.2623
62.5500 38.6107
62.5600 53.8822
62.5700 46.0179
62.5800 35.5668
62.5900 40.6367
62.6000 32.8555
62.6100 54.2318
62.6200 46.0895
62.6300 52.2844
62.6400 43.2233
62.6500 46.8836
62.6600 42.8399
62.6700 51.5752
62.6800 52.6651
62.6900 50.5423
62.7000 53.9528
62.7100 50.8704
62.7200 52.0170
62.7300 60.8004
62.7400 45.5979
62.7500 52.5277
62.7600 52.4820
62.7700 37.2805
62.7800 50.8309
62.7900 55.7864
62.8000 39.1438
62.8100 52.8772
62.8200 49.3367
62.8300 37.6186
62.8400 43.9366
62.8500 47.6405
62.8600 45.4244
62.8700 57.2788
62.8800 61.2043
62.8900 52.8760
62.9000 60.3456
62.9100 41.3886
62.9200 46.1762
62.9300 62.1828
62.9400 54.3754
62.9500 54.1408
62.9600 53.6379
62.9700 44.2800
62.9800 46.4171
62.9900 51.6191
63.0000 46.5495
63.0100 54.0304
63.0200 52.0554
63.0300 45.8796
63.0400 48.1911
63.0500 49.0413
63.0600 53.6648
63.0700 43.6565
63.0800 43.1156
63.0900 45.9736
63.1000 46.7610
63.1100 40.9585
63.1200 52.2530
63.1300 51.7930
63.1400 43.5722
63.1500 45.8584
63.1600 59.1256
63.1700 54.3647
63.1800 51.1331
63.1900 43.3508
63.2000 46.4008
63.2100 53.9370
63.2200 54.9862
63.2300 59.1683
63.2400 49.9949
63.2500 45.8942
63.2600 59.7437
63.2700 48.4207
63.2800 59.8168
63.2900 56.8920
63.3000 49.6018
63.3100 44.6842
63.3200 46.1709
63.3300 56.7943
63.3400 63.3123
63.3500 47.3868
63.3600 47.4853
63.3700 49.6724
63.3800 53.6469
63.3900 55.6313
63.4000 51.1093
63.4100 52.2106
63.4200 42.2017
63.4300 44.9399
63.4400 61.4518
63.4500 38.7289
63.4600 41.0987
63.4700 47.1001
63.4800 39.9469
63.4900 46.0740
63.5000 52.0383
63.5100 48.1905
63.5200 43.1704
63.5300 48.1216
63.5400 48.4833
63.5500 53.4389
63.5600 42.6902
63.5700 50.7357
63.5800 51.5986
63.5900 55.5526
63.6000 48.1165
63.6100 46.7810
63.6200 61.1372
63.6300 48.6339
63.6400 48.4618
63.6500 49.7175
63.6600 51.4618
63.6700 43.3278
63.6800 41.8831
63.6900 47.1872
63.7000 47.1784
63.7100 44.9046
63.7200 67.0191
63.7300 47.3091
63.7400 45.9898
63.7500 47.1250
63.7600 51.0020
63.7700 48.8579
63.7800 50.3526
63.7900 60.1632
63.8000 70.1972
63.8100 56.1595
63.8200 52.0887
63.8300 52.7056
63.8400 46.8685
63.8500 46.1538
63.8600 50.3375
63.8700 54.2688
63.8800 51.9717
63.8900 50.2845
63.9000 58.9926
63.9100 49.6952
63.9200 44.3856
63.9300 55.4646
63.9400 47.7611
63.9500 43.0486
63.9600 38.2615
63.9700 57.3175
63.9800 46.9906
63.9900 62.7676
64.0000 49.5576
64.0100 60.5408
64.0200 68.3150
64.0300 53.6812
64.0400 61.6757
64.0500 51.1015
64.0600 40.7387
64.0700 58.8504
64.0800 56.3924
64.0900 47.8049
64.1000 53.4100
64.1100 54.1571
64.1200 57.4093
64.1300 45.4646
64.1400 41.2392
64.1500 48.0451
64.1600 52.1175
64.1700 43.2567
64.1800 50.6260
64.1900 53.4388
64.2000 40.3584
64.2100 55.0605
64.2200 52.6215
64.2300 57.3831
64.2400 60.9537
64.2500 42.6140
64.2600 52.1198
64.2700 50.2427
64.2800 46.0735
64.2900 46.8804
64.3000 51.6769
64.3100 47.8112
64.3200 46.8935
64.3300 51.2040
64.3400 49.3724
64.3500 41.1910
64.3600 48.1936
64.3700 45.7687
64.3800 48.7893
64.3900 58.0746
64.4000 60.4405
64.4100 45.2891
64.4200 52.9336
64.4300 37.1928
64.4400 54.3276
64.4500 46.8832
64.4600 65.6378
64.4700 37.4283
64.4800 44.2464
64.4900 43.1652
64.5000 43.8329
64.5100 53.3423
64.5200 56.1670
64.5300 50.4009
64.5400 61.5471
64.5500 54.3035
64.5600 54.0895
64.5700 56.2843
64.5800 55.1901
64.5900 58.9168
64.6000 34.7589
64.6100 45.3530
64.6200 51.6878
64.6300 51.4003
64.6400 38.7413
64.6500 53.2776
64.6600 55.5060
64.6700 57.2995
64.6800 50.3105
64.6900 52.2983
64.7000 45.2875
64.7100 49.3032
64.7200 56.6012
64.7300 56.6065
64.7400 51.8231
64.7500 60.0492
64.7600 54.0100
64.7700 49.4637
64.7800 54.9208
64.7900 53.9057
64.8000 49.4669
64.8100 44.1427
64.8200 50.1134
64.8300 47.9958
64.8400 51.0873
64.8500 47.7718
64.8600 57.1351
64.8700 41.9552
64.8800 48.8508
64.8900 40.8000
64.9000 45.3900
64.9100 53.4230
64.9200 45.4853
64.9300 49.8834
64.9400 49.4461
64.9500 51.5517
64.9600 53.1169
64.9700 48.9010
64.9800 47.1084
64.9900 42.2231
65.0000 50.3500
65.0100 43.0861
65.0200 61.0882
65.0300 47.6391
65.0400 44.6004
65.0500 52.4111
65.0600 51.0187
65.0700 41.3251
65.0800 48.5255
65.0900 39.4647
65.1000 48.3536
65.1100 48.4892
65.1200 45.0882
65.1300 42.9528
65.1400 62.7256
65.1500 39.1589
65.1600 47.2374
65.1700 51.5948
65.1800 45.2987
65.1900 46.3248
65.2000 49.0373
65.2100 48.9792
65.2200 43.7140
65.2300 51.6919
65.2400 44.9675
65.2500 54.0670
65.2600 61.2100
65.2700 55.0046
65.2800 57.0058
65.2900 57.6441
65.3000 41.6473
65.3100 55.2040
65.3200 55.2178
65.3300 57.3230
65.3400 57.4161
65.3500 46.3345
65.3600 44.8786
65.3700 58.2503
65.3800 53.9295
65.3900 55.8244
65.4000 50.9493
65.4100 56.6105
65.4200 50.0352
65.4300 52.9664
65.4400 46.1814
65.4500 47.2390
65.4600 57.1798
65.4700 46.2568
65.4800 54.5307
65.4900 49.8680
65.5000 44.4251
65.5100 49.3642
65.5200 47.7383
65.5300 39.7708
65.5400 51.2177
65.5500 44.4626
65.5600 47.7642
65.5700 54.1472
65.5800 45.4419
65.5900 44.7677
65.6000 45.5497
65.6100 39.1109
65.6200 42.9421
65.6300 41.9874
65.6400 61.0548
65.6500 58.7927
65.6600 54.3692
65.6700 51.4909
65.6800 42.9935
65.6900 50.0854
65.7000 42.0589
65.7100 45.6064
65.7200 37.9502
65.7300 35.9102
65.7400 42.4112
65.7500 49.3449
65.7600 49.0863
65.7700 61.9374
65.7800 43.2932
65.7900 54.2910
65.8000 54.5084
65.8100 42.7552
65.8200 58.0088
65.8300 64.0883
65.8400 58.2064
65.8500 53.7298
65.8600 45.6057
65.8700 47.6537
65.8800 55.0620
65.8900 64.9123
65.9000 50.8165
65.9100 50.1636
65.9200 50.5960
65.9300 65.5998
65.9400 55.4177
65.9500 47.6042
65.9600 59.7774
65.9700 51.8577
65.9800 44.4902
65.9900 55.3974
66.0000 46.3961
66.0100 57.1552
66.0200 41.1769
66.0300 60.1080
66.0400 49.9010
66.0500 47.3381
66.0600 46.1761
66.0700 37.9389
66.0800 57.0407
66.0900 52.6870
66.1000 54.8338
66.1100 53.5887
66.1200 48.7661
66.1300 45.7046
66.1400 49.7020
66.1500 38.6976
66.1600 51.1123
66.1700 58.5075
66.1800 40.7246
66.1900 51.8112
66.2000 50.8791
66.2100 49.4654
66.2200 50.5334
66.2300 57.5428
66.2400 46.4471
66.2500 60.9186
66.2600 48.7714
66.2700 41.2735
66.2800 52.3012
66.2900 52.1030
66.3000 49.6255
66.3100 50.8242
66.3200 59.5524
66.3300 48.1051
66.3400 48.8098
66.3500 53.4546
66.3600 39.3770
66.3700 52.7861
66.3800 44.2343
66.3900 51.5998
66.4000 49.5467
66.4100 57.5754
66.4200 38.9344
66.4300 47.4360
66.4400 50.1121
66.4500 50.1355
66.4600 42.5466
66.4700 45.8278
66.4800 47.6777
66.4900 43.9515
66.5000 49.0922
66.5100 45.8766
66.5200 54.8963
66.5300 33.1021
66.5400 45.3193
66.5500 44.5604
66.5600 54.0165
66.5700 45.7644
66.5800 42.5061
66.5900 43.9394
66.6000 46.6207
66.6100 53.8731
66.6200 51.5068
66.6300 52.4804
66.6400 58.8847
66.6500 43.7989
66.6600 47.1000
66.6700 45.0100
66.6800 51.0046
66.6900 45.1333
66.7000 50.6735
66.7100 47.5004
66.7200 51.4448
66.7300 42.8643
66.7400 46.3188
66.7500 52.0040
66.7600 53.9871
66.7700 52.5867
66.7800 56.0116
66.7900 63.1129
66.8000 44.5236
66.8100 55.5607
66.8200 49.7503
66.8300 43.9733
66.8400 61.6838
66.8500 38.0542
66.8600 62.5889
66.8700 63.1616
66.8800 48.7345
66.8900 53.5590
66.9000 55.3645
66.9100 51.7271
66.9200 52.5997
66.9300 50.7784
66.9400 45.1878
66.9500 48.9580
66.9600 55.0113
66.9700 46.0589
66.9800 58.3926
66.9900 47.0333
67.0000 49.7549
67.0100 51.1966
67.0200 50.2467
67.0300 47.9979
67.0400 41.7636
67.0500 49.9705
67.0600 47.0292
67.0700 47.7979
67.0800 63.1151
67.0900 48.7590
67.1000 43.9927
67.1100 49.5718
67.1200 53.5855
67.1300 58.2264
67.1400 56.7583
67.1500 42.3186
67.1600 55.5074
67.1700 76.3501
67.1800 36.8338
67.1900 55.9934
67.2000 44.1478
67.2100 41.0415
67.2200 39.4783
67.2300 54.7504
67.2400 52.2646
67.2500 41.9356
67.2600 47.0352
67.2700 47.8060
67.2800 51.9267
67.2900 41.2137
67.3000 41.2070
67.3100 50.7335
67.3200 53.8140
67.3300 44.7104
67.3400 47.4666
67.3500 41.6876
67.3600 48.0826
67.3700 49.4332
67.3800 35.6237
67.3900 56.1459
67.4000 44.7810
67.4100 53.2558
67.4200 45.5339
67.4300 51.7838
67.4400 45.5080
67.4500 46.0247
67.4600 52.1453
67.4700 46.9989
67.4800 53.6854
67.4900 64.4898
67.5000 33.6287
67.5100 57.1665
67.5200 42.3350
67.5300 43.3545
67.5400 45.9041
67.5500 52.5130
67.5600 59.8630
67.5700 48.4687
67.5800 41.4170
67.5900 54.8442
67.6000 59.6108
67.6100 56.8592
67.6200 48.2346
67.6300 58.0944
67.6400 62.9982
67.6500 50.3871
67.6600 45.6597
67.6700 54.7855
67.6800 53.7644
67.6900 37.5609
67.7000 47.1482
67.7100 60.9286
67.7200 40.1647
67.7300 54.2602
67.7400 51.9330
67.7500 56.8749
67.7600 54.5864
67.7700 53.1234
67.7800 47.1687
67.7900 58.7947
67.8000 47.6968
67.8100 44.9320
67.8200 42.5070
67.8300 50.8527
67.8400 51.0255
67.8500 38.4864
67.8600 47.5928
67.8700 42.2321
67.8800 47.3203
67.8900 45.4070
67.9000 45.7373
67.9100 41.3472
67.9200 52.0572
67.9300 49.8001
67.9400 54.5712
67.9500 47.2302
67.9600 48.5190
67.9700 51.8804
67.9800 44.5292
67.9900 46.9059
68.0000 45.2817
68.0100 51.8285
68.0200 52.0354
68.0300 41.5299
68.0400 47.3784
68.0500 53.5324
68.0600 39.4404
68.0700 50.2597
68.0800 41.9145
68.0900 47.1501
68.1000 50.3744
68.1100 54.3115
68.1200 40.5435
68.1300 49.4493
68.1400 57.7266
68.1500 50.1926
68.1600 47.5681
68.1700 49.7017
68.1800 47.0433
68.1900 51.1788
68.2000 47.0881
68.2100 46.0867
68.2200 43.0398
68.2300 61.4892
68.2400 52.1365
68.2500 37.8967
68.2600 50.4959
68.2700 49.7606
68.2800 47.5480
68.2900 49.9084
68.3000 51.4720
68.3100 52.9672
68.3200 44.3128
68.3300 51.8926
68.3400 47.9665
68.3500 35.0205
68.3600 46.3478
68.3700 39.9620
68.3800 47.4476
68.3900 43.0615
68.4000 45.9444
68.4100 44.7868
68.4200 54.0321
68.4300 45.7068
68.4400 52.0821
68.4500 58.2300
68.4600 43.0885
68.4700 43.1216
68.4800 32.4490
68.4900 52.7307
68.5000 58.9345
68.5100 54.2860
68.5200 52.2480
68.5300 47.2735
68.5400 49.4700
68.5500 47.2243
68.5600 49.6157
68.5700 58.4968
68.5800 58.6444
68.5900 48.3150
68.6000 45.2658
68.6100 53.7299
68.6200 44.6164
68.6300 56.2277
68.6400 46.4129
68.6500 52.7270
68.6600 44.7722
68.6700 55.8845
68.6800 52.4780
68.6900 51.6889
68.7000 52.5324
68.7100 60.5304
68.7200 53.9441
68.7300 54.1269
68.7400 52.0777
68.7500 50.0473
68.7600 53.1260
68.7700 54.7252
68.7800 52.6314
68.7900 50.0826
68.8000 49.1478
68.8100 42.1347
68.8200 53.5483
68.8300 47.3119
68.8400 49.2900
68.8500 45.7643
68.8600 49.3271
68.8700 52.9549
68.8800 49.0699
68.8900 57.1684
68.9000 45.3159
68.9100 45.5284
68.9200 45.8186
68.9300 50.1193
68.9400 49.4686
68.9500 59.6116
68.9600 48.2258
68.9700 61.2366
68.9800 46.6426
68.9900 50.7044
69.0000 57.1316
69.0100 46.4653
69.0200 46.0219
69.0300 41.3383
69.0400 47.7710
69.0500 43.9915
69.0600 50.0342
69.0700 37.8176
69.0800 50.1523
69.0900 43.5907
69.1000 54.4628
69.1100 54.2554
69.1200 46.2493
69.1300 48.3043
69.1400 59.6107
69.1500 57.5646
69.1600 46.7376
69.1700 50.4170
69.1800 48.8825
69.1900 60.8254
69.2000 52.3782
69.2100 41.7396
69.2200 48.7690
69.2300 40.0352
69.2400 49.5208
69.2500 52.6348
69.2600 50.5728
69.2700 55.7277
69.2800 50.7210
69.2900 42.4194
69.3000 40.4923
69.3100 43.5364
69.3200 38.6548
69.3300 56.2458
69.3400 65.0286
69.3500 44.0164
69.3600 42.8318
69.3700 42.7446
69.3800 43.1316
69.3900 49.9210
69.4000 44.6996
69.4100 39.8420
69.4200 50.0492
69.4300 45.6344
69.4400 43.8071
69.4500 46.4058
69.4600 51.9592
69.4700 48.0583
69.4800 44.4010
69.4900 47.6113
69.5000 52.3820
69.5100 38.6090
69.5200 50.2821
69.5300 54.3869
69.5400 53.1005
69.5500 47.7662
69.5600 52.0627
69.5700 45.6737
69.5800 46.7472
69.5900 53.4147
69.6000 53.6861
69.6100 39.3388
69.6200 37.9709
69.6300 48.1222
69.6400 62.0392
69.6500 53.2918
69.6600 51.3782
69.6700 37.9636
69.6800 45.6152
69.6900 49.1077
69.7000 47.0528
69.7100 51.1147
69.7200 52.2298
69.7300 54.5399
69.7400 49.5130
69.7500 62.8070
69.7600 43.3406
69.7700 42.9891
69.7800 42.8826
69.7900 58.7949
69.8000 47.3622
69.8100 52.1162
69.8200 54.1884
69.8300 42.4688
69.8400 62.0919
69.8500 48.2368
69.8600 44.2679
69.8700 39.2349
69.8800 40.9962
69.8900 54.0551
69.9000 49.0298
69.9100 46.9046
69.9200 45.4330
69.9300 53.8476
69.9400 41.8373
69.9500 55.1481
69.9600 45.6841
69.9700 43.7929
69.9800 55.7368
69.9900 42.1112
70.0000 54.8929
70.0100 41.2116
70.0200 40.5464
70.0300 48.9744
70.0400 48.1664
70.0500 39.3357
70.0600 42.8118
70.0700 50.9920
70.0800 47.3766
70.0900 47.1073
70.1000 41.0604
70.1100 46.6223
70.1200 50.1080
70.1300 58.4014
70.1400 48.0426
70.1500 46.1841
70.1600 52.1712
70.1700 54.6085
70.1800 37.7036
70.1900 48.4344
70.2000 53.6097
70.2100 61.8716
70.2200 51.1088
70.2300 53.1520
70.2400 48.4383
70.2500 46.5827
70.2600 46.0391
70.2700 44.7701
70.2800 58.5797
70.2900 58.5576
70.3000 36.5109
70.3100 56.9642
70.3200 41.5070
70.3300 52.6528
70.3400 39.8016
70.3500 38.5992
70.3600 50.3722
70.3700 56.2956
70.3800 58.6918
70.3900 53.6948
70.4000 45.9374
70.4100 53.1371
70.4200 45.6239
70.4300 53.8260
70.4400 45.1606
70.4500 56.9627
70.4600 37.8637
70.4700 35.4981
70.4800 51.5078
70.4900 60.1973
70.5000 49.5691
70.5100 54.4737
70.5200 52.9681
70.5300 42.1167
70.5400 40.7083
70.5500 38.9375
70.5600 43.4478
70.5700 50.5532
70.5800 50.9763
70.5900 39.9361
70.6000 52.7936
70.6100 50.0803
70.6200 53.2064
70.6300 51.0106
70.6400 51.2769
70.6500 58.7757
70.6600 60.5680
70.6700 47.7994
70.6800 56.5672
70.6900 62.8166
70.7000 46.4674
70.7100 45.5966
70.7200 48.5811
70.7300 48.2661
70.7400 32.7373
70.7500 64.2457
70.7600 53.9725
70.7700 58.3362
70.7800 50.2386
70.7900 59.1610
70.8000 48.7534
70.8100 46.6033
70.8200 53.2858
70.8300 52.6080
70.8400 48.8701
70.8500 65.1629
70.8600 46.9604
70.8700 44.4732
70.8800 49.7865
70.8900 47.4753
70.9000 47.0438
70.9100 45.8984
70.9200 38.5826
70.9300 43.0462
70.9400 51.2501
70.9500 43.9261
70.9600 37.8198
70.9700 50.5631
70.9800 45.2294
70.9900 57.8406
71.0000 52.5072
71.0100 48.1841
71.0200 50.4405
71.0300 49.1888
71.0400 49.7530
71.0500 44.1883
71.0600 45.9808
71.0700 54.2228
71.0800 48.4165
71.0900 58.6246
71.1000 48.7514
71.1100 47.1895
71.1200 48.7194
71.1300 51.6188
71.1400 41.8166
71.1500 48.9972
71.1600 58.0389
71.1700 42.8222
71.1800 40.6567
71.1900 51.7876
71.2000 53.0084
71.2100 44.9722
71.2200 45.3708
71.2300 41.1664
71.2400 45.9646
71.2500 52.6960
71.2600 59.7869
71.2700 46.0268
71.2800 49.6476
71.2900 55.2472
71.3000 48.4913
71.3100 40.4200
71.3200 39.0146
71.3300 42.9935
71.3400 51.9999
71.3500 63.3639
71.3600 48.0347
71.3700 58.7561
71.3800 58.9525
71.3900 55.2311
71.4000 52.9001
71.4100 52.9352
71.4200 50.2771
71.4300 36.0716
71.4400 52.9984
71.4500 43.2177
71.4600 41.7296
71.4700 51.5302
71.4800 46.3560
71.4900 46.7196
71.5000 48.4420
71.5100 49.5814
71.5200 48.1586
71.5300 50.4513
71.5400 56.2051
71.5500 49.2063
71.5600 52.2982
71.5700 50.3761
71.5800 54.5336
71.5900 54.9723
71.6000 49.9715
71.6100 61.4726
71.6200 48.0602
71.6300 41.7540
71.6400 51.5598
71.6500 47.4066
71.6600 57.6190
71.6700 65.3267
71.6800 52.2803
71.6900 34.1825
71.7000 43.3706
71.7100 41.8794
71.7200 59.4175
71.7300 47.2291
71.7400 49.9930
71.7500 47.4792
71.7600 54.9399
71.7700 52.5813
71.7800 50.0887
71.7900 44.0227
71.8000 52.6755
71.8100 48.5285
71.8200 54.1613
71.8300 59.5289
71.8400 55.1690
71.8500 56.0970
71.8600 56.4548
71.8700 58.0623
71.8800 51.3333
71.8900 39.9784
71.9000 54.7515
71.9100 51.2706
71.9200 44.6470
71.9300 52.5991
71.9400 51.0327
71.9500 28.6761
71.9600 43.5956
71.9700 45.2058
71.9800 39.1941
71.9900 43.1323
72.0000 49.3665
72.0100 51.2306
72.0200 45.9226
72.0300 48.2125
72.0400 52.6545
72.0500 56.0839
72.0600 42.1501
72.0700 51.2254
72.0800 48.5988
72.0900 49.6995
72.1000 44.5187
72.1100 53.8312
72.1200 50.1393
72.1300 56.1682
72.1400 45.9141
72.1500 40.2079
72.1600 52.8178
72.1700 46.8770
72.1800 53.3738
72.1900 44.3133
72.2000 46.4511
72.2100 44.5177
72.2200 35.4718
72.2300 51.1775
72.2400 54.1352
72.2500 45.7045
72.2600 39.2994
72.2700 46.1809
72.2800 40.7442
72.2900 47.3889
72.3000 49.3115
72.3100 57.6556
72.3200 54.8359
72.3300 42.5250
72.3400 52.1719
72.3500 37.8694
72.3600 46.0424
72.3700 46.4877
72.3800 49.5208
72.3900 53.3360
72.4000 54.8040
72.4100 52.9246
72.4200 55.1703
72.4300 48.8962
72.4400 49.5419
72.4500 34.8510
72.4600 43.7462
72.4700 49.1961
72.4800 44.6716
72.4900 44.6581
72.5000 51.0600
72.5100 47.0813
72.5200 47.8509
72.5300 35.5737
72.5400 57.1084
72.5500 50.2966
72.5600 52.3086
72.5700 43.0178
72.5800 51.2155
72.5900 58.5883
72.6000 52.4583
72.6100 44.8550
72.6200 45.7721
72.6300 43.4178
72.6400 40.7849
72.6500 53.0061
72.6600 56.4139
72.6700 47.6437
72.6800 42.8716
72.6900 48.7702
72.7000 42.4031
72.7100 55.3291
72.7200 37.9684
72.7300 42.6178
72.7400 52.5458
72.7500 40.3249
72.7600 49.8985
72.7700 54.8708
72.7800 45.1617
72.7900 44.7130
72.8000 51.3284
72.8100 55.3572
72.8200 51.0839
72.8300 52.2602
72.8400 51.7137
72.8500 40.9375
72.8600 51.3426
72.8700 49.9286
72.8800 43.7384
72.8900 56.1765
72.9000 52.9541
72.9100 51.8466
72.9200 50.8204
72.9300 51.7005
72.9400 37.9867
72.9500 35.4571
72.9600 36.6439
72.9700 39.7359
72.9800 42.8963
72.9900 43.3004
73.0000 45.3878
73.0100 53.0047
73.0200 50.9450
73.0300 42.6005
73.0400 36.8145
73.0500 41.4332
73.0600 37.1209
73.0700 54.6801
73.0800 50.7718
73.0900 39.9601
73.1000 50.1748
73.1100 54.1206
73.1200 41.2572
73.1300 45.5621
73.1400 51.0125
73.1500 46.8082
73.1600 55.4241
73.1700 53.3559
73.1800 40.9922
73.1900 26.2926
73.2000 42.5923
73.2100 39.1529
73.2200 46.6380
73.2300 51.7314
73.2400 37.5905
73.2500 46.8357
73.2600 52.9642
73.2700 46.8505
73.2800 51.0145
73.2900 45.3942
73.3000 52.7020
73.3100 52.9622
73.3200 55.5317
73.3300 58.4747
73.3400 43.2119
73.3500 48.9265
73.3600 44.0251
73.3700 40.9434
73.3800 45.5007
73.3900 40.1980
73.4000 44.8405
73.4100 55.0293
73.4200 65.0793
73.4300 51.1546
73.4400 47.4012
73.4500 56.3061
73.4600 42.4834
73.4700 46.6568
73.4800 56.2929
73.4900 62.3318
73.5000 50.0205
73.5100 36.0507
73.5200 42.3203
73.5300 54.8200
73.5400 61.1146
73.5500 47.6176
73.5600 56.6851
73.5700 49.3889
73.5800 63.5822
73.5900 55.5488
73.6000 58.6469
73.6100 46.2508
73.6200 54.2856
73.6300 61.4220
73.6400 50.4785
73.6500 50.5799
73.6600 41.7575
73.6700 53.8750
73.6800 57.2580
73.6900 61.1072
73.7000 39.3699
73.7100 52.0744
73.7200 48.8424
73.7300 41.7377
73.7400 48.9422
73.7500 54.5110
73.7600 45.4537
73.7700 53.8595
73.7800 57.4796
73.7900 34.4072
73.8000 51.5025
73.8100 53.1245
73.8200 60.0360
73.8300 39.1255
73.8400 47.1120
73.8500 41.8350
73.8600 60.1243
73.8700 50.2044
73.8800 45.0921
73.8900 53.4853
73.9000 53.8749
73.9100 47.8328
73.9200 44.4538
73.9300 55.1802
73.9400 50.5610
73.9500 60.8499
73.9600 46.0184
73.9700 45.2100
73.9800 55.5955
73.9900 54.4734
74.0000 41.7234
74.0100 57.8799
74.0200 61.2994
74.0300 51.2139
74.0400 56.0458
74.0500 47.8975
74.0600 49.2244
74.0700 40.9155
74.0800 40.7620
74.0900 40.9578
74.1000 50.0482
74.1100 52.8237
74.1200 48.6045
74.1300 48.1285
74.1400 48.9515
74.1500 47.1269
74.1600 44.1284
74.1700 58.9837
74.1800 49.9915
74.1900 46.6178
74.2000 48.6839
74.2100 41.8362
74.2200 50.1953
74.2300 52.3384
74.2400 54.3389
74.2500 51.6337
74.2600 52.4215
74.2700 45.3233
74.2800 42.4421
74.2900 51.6891
74.3000 44.6982
74.3100 55.2791
74.3200 44.7713
74.3300 39.6468
74.3400 47.2962
74.3500 36.8044
74.3600 50.5403
74.3700 45.9951
74.3800 47.0585
74.3900 39.4327
74.4000 56.1660
74.4100 40.3215
74.4200 49.5901
74.4300 47.2491
74.4400 56.7644
74.4500 47.7620
74.4600 51.7325
74.4700 58.5061
74.4800 57.7606
74.4900 58.8008
74.5000 49.8244
74.5100 48.5902
74.5200 42.1922
74.5300 40.2687
74.5400 46.7981
74.5500 49.9596
74.5600 49.2208
74.5700 46.0636
74.5800 53.7672
74.5900 47.9028
74.6000 45.6322
74.6100 45.0298
74.6200 49.1924
74.6300 51.9305
74.6400 49.3805
74.6500 49.1714
74.6600 43.7412
74.6700 54.8587
74.6800 43.9947
74.6900 37.7399
74.7000 44.6615
74.7100 52.3714
74.7200 59.2069
74.7300 59.7119
74.7400 51.2139
74.7500 48.8838
74.7600 42.2441
74.7700 55.6950
74.7800 48.8030
74.7900 43.3518
74.8000 45.6054
74.8100 41.8248
74.8200 51.3352
74.8300 42.8656
74.8400 48.8812
74.8500 43.7676
74.8600 41.3562
74.8700 38.3073
74.8800 60.3165
74.8900 46.1957
74.9000 45.2305
74.9100 49.3459
74.9200 44.7794
74.9300 64.8063
74.9400 45.3665
74.9500 39.3662
74.9600 46.3011
74.9700 43.6400
74.9800 44.1024
74.9900 49.1707
75.0000 44.9839
75.0100 53.5972
75.0200 41.5349
75.0300 48.4383
75.0400 56.4068
75.0500 44.5938
75.0600 48.8039
75.0700 67.8198
75.0800 42.5833
75.0900 61.2496
75.1000 52.3633
75.1100 56.7333
75.1200 42.2415
75.1300 42.5837
75.1400 46.6376
75.1500 59.4683
75.1600 64.7892
75.1700 49.3959
75.1800 47.5970
75.1900 43.9510
75.2000 56.8330
75.2100 54.4596
75.2200 41.7329
75.2300 48.3334
75.2400 39.6555
75.2500 56.0416
75.2600 50.5048
75.2700 53.0265
75.2800 50.4166
75.2900 50.8114
75.3000 43.5904
75.3100 42.6742
75.3200 49.7810
75.3300 51.2135
75.3400 57.2687
75.3500 47.2353
75.3600 59.9052
75.3700 44.3081
75.3800 42.8100
75.3900 46.5700
75.4000 53.5958
75.4100 47.0699
75.4200 43.7304
75.4300 49.2421
75.4400 45.1352
75.4500 46.4627
75.4600 48.2973
75.4700 48.2788
75.4800 40.5269
75.4900 49.9761
75.5000 47.8279
75.5100 52.7750
75.5200 47.4449
75.5300 52.4640
75.5400 59.1304
75.5500 42.7728
75.5600 42.0145
75.5700 50.5217
75.5800 54.3353
75.5900 50.3158
75.6000 52.4443
75.6100 42.2772
75.6200 46.4112
75.6300 55.2504
75.6400 53.6835
75.6500 50.5054
75.6600 38.1791
75.6700 50.2135
75.6800 45.2996
75.6900 49.8773
75.7000 45.3093
75.7100 54.9526
75.7200 43.8560
75.7300 36.5410
75.7400 42.1945
75.7500 46.5375
75.7600 50.6858
75.7700 43.7160
75.7800 59.5146
75.7900 52.9654
75.8000 51.1582
75.8100 41.0914
75.8200 35.6084
75.8300 55.2060
75.8400 44.4704
75.8500 49.7499
75.8600 46.0417
75.8700 51.2946
75.8800 51.1492
75.8900 44.6086
75.9000 48.1001
75.9100 43.5942
75.9200 45.8169
75.9300 44.1889
75.9400 51.2568
75.9500 39.6882
75.9600 43.7201
75.9700 43.4843
75.9800 58.1429
75.9900 50.3705
76.0000 39.5326
76.0100 54.3683
76.0200 58.8782
76.0300 47.0684
76.0400 49.1593
76.0500 52.1504
76.0600 52.5489
76.0700 47.9587
76.0800 40.2619
76.0900 45.3316
76.1000 52.4343
76.1100 50.5254
76.1200 52.3742
76.1300 49.1265
76.1400 39.2291
76.1500 64.2588
76.1600 57.9917
76.1700 40.3071
76.1800 42.8027
76.1900 36.0369
76.2000 54.8021
76.2100 47.4745
76.2200 58.2631
76.2300 58.8748
76.2400 61.1336
76.2500 40.0968
76.2600 46.8783
76.2700 43.2597
76.2800 48.6615
76.2900 44.2106
76.3000 43.6264
76.3100 51.1637
76.3200 48.6689
76.3300 69.2374
76.3400 59.3750
76.3500 46.0219
76.3600 40.2835
76.3700 50.3314
76.3800 43.2843
76.3900 39.2336
76.4000 41.1281
76.4100 36.0441
76.4200 37.0567
76.4300 38.0083
76.4400 41.4532
76.4500 48.9169
76.4600 62.3801
76.4700 46.0963
76.4800 53.8263
76.4900 63.7503
76.5000 51.8021
76.5100 44.9947
76.5200 49.6680
76.5300 59.4500
76.5400 37.3084
76.5500 40.5352
76.5600 45.3191
76.5700 53.0761
76.5800 47.4024
76.5900 50.6812
76.6000 52.3844
76.6100 45.5444
76.6200 44.5806
76.6300 53.3358
76.6400 42.0113
76.6500 47.8141
76.6600 45.2684
76.6700 51.6066
76.6800 51.5592
76.6900 44.5859
76.7000 45.1591
76.7100 44.0037
76.7200 53.9452
76.7300 56.9046
76.7400 47.0054
76.7500 56.8157
76.7600 44.9512
76.7700 47.2209
76.7800 50.4169
76.7900 49.1849
76.8000 42.5212
76.8100 43.6644
76.8200 45.0531
76.8300 40.3400
76.8400 44.2147
76.8500 47.9042
76.8600 46.2778
76.8700 41.6810
76.8800 55.4505
76.8900 46.1159
76.9000 45.8591
76.9100 52.9112
76.9200 44.4584
76.9300 51.0783
76.9400 52.5166
76.9500 49.2394
76.9600 43.8589
76.9700 47.5790
76.9800 41.2151
76.9900 38.1992
77.0000 54.9180
77.0100 46.4964
77.0200 60.3118
77.0300 53.0690
77.0400 51.9836
77.0500 47.5521
77.0600 42.8168
77.0700 40.2193
77.0800 46.2569
77.0900 55.4110
77.1000 46.1103
77.1100 48.0617
77.1200 47.5792
77.1300 65.9576
77.1400 48.2762
77.1500 57.2448
77.1600 55.7844
77.1700 51.4971
77.1800 49.2047
77.1900 49.0617
77.2000 40.9591
77.2100 37.6754
77.2200 54.7491
77.2300 56.8642
77.2400 54.7799
77.2500 56.6722
77.2600 56.1263
77.2700 59.9827
77.2800 51.6265
77.2900 61.0073
77.3000 52.3540
77.3100 43.9281
77.3200 43.8673
77.3300 46.4490
77.3400 57.8589
77.3500 54.6905
77.3600 52.6595
77.3700 57.2774
77.3800 48.7172
77.3900 53.0733
77.4000 53.4088
77.4100 62.0859
77.4200 40.1172
77.4300 41.4256
77.4400 49.5424
77.4500 41.2010
77.4600 49.9260
77.4700 40.1801
77.4800 51.7972
77.4900 43.9151
77.5000 39.6490
77.5100 48.5037
77.5200 57.0777
77.5300 51.1732
77.5400 48.3180
77.5500 43.4560
77.5600 51.7463
77.5700 49.5220
77.5800 54.1449
77.5900 53.4207
77.6000 50.9393
77.6100 49.6141
77.6200 46.9140
77.6300 36.7497
77.6400 40.3474
77.6500 55.5116
77.6600 45.8389
77.6700 39.1391
77.6800 55.5452
77.6900 57.3714
77.7000 56.3689
77.7100 35.3127
77.7200 40.6957
77.7300 40.4559
77.7400 52.4155
77.7500 51.5545
77.7600 41.1259
77.7700 50.2777
77.7800 40.8428
77.7900 48.7747
77.8000 52.5615
77.8100 58.6046
77.8200 49.1790
77.8300 47.7098
77.8400 61.3380
77.8500 52.1575
77.8600 50.8345
77.8700 49.6885
77.8800 44.9503
77.8900 45.9353
77.9000 44.8661
77.9100 53.3729
77.9200 56.4267
77.9300 45.2796
77.9400 40.3072
77.9500 49.3858
77.9600 55.3852
77.9700 47.2492
77.9800 48.4011
77.9900 59.7231
78.0000 47.9741
78.0100 48.0137
78.0200 58.6352
78.0300 48.4211
78.0400 55.1722
78.0500 47.6474
78.0600 48.3540
78.0700 49.0942
78.0800 50.8488
78.0900 42.9848
78.1000 64.6644
78.1100 44.7371
78.1200 40.3693
78.1300 40.5590
78.1400 36.8660
78.1500 52.5551
78.1600 54.3961
78.1700 46.5394
78.1800 40.1331
78.1900 51.4022
78.2000 43.4062
78.2100 59.5511
78.2200 50.2260
78.2300 50.3659
78.2400 49.5718
78.2500 46.3545
78.2600 48.2698
78.2700 54.5688
78.2800 39.4422
78.2900 53.7546
78.3000 38.9495
78.3100 49.3027
78.3200 44.0792
78.3300 46.4998
78.3400 41.2729
78.3500 43.1143
78.3600 53.9912
78.3700 38.4120
78.3800 52.9217
78.3900 63.5126
78.4000 40.1400
78.4100 38.7487
78.4200 44.2677
78.4300 56.8155
78.4400 48.1178
78.4500 45.6017
78.4600 48.0634
78.4700 45.6541
78.4800 53.4354
78.4900 51.6212
78.5000 42.5267
78.5100 56.7266
78.5200 50.2734
78.5300 49.7145
78.5400 42.1911
78.5500 42.1504
78.5600 36.7054
78.5700 45.6960
78.5800 59.2823
78.5900 43.2053
78.6000 37.5926
78.6100 36.8829
78.6200 43.2854
78.6300 46.7032
78.6400 41.8815
78.6500 40.4082
78.6600 48.2554
78.6700 47.6069
78.6800 45.9456
78.6900 59.5307
78.7000 59.4792
78.7100 45.8161
78.7200 53.7943
78.7300 44.6735
78.7400 55.5433
78.7500 55.3091
78.7600 50.7969
78.7700 42.8070
78.7800 57.3719
78.7900 45.6844
78.8000 68.6129
78.8100 48.9001
78.8200 61.1257
78.8300 48.7330
78.8400 48.8064
78.8500 49.8544
78.8600 60.7639
78.8700 51.4157
78.8800 48.9029
78.8900 47.8966
78.9000 49.9518
78.9100 48.3665
78.9200 43.5813
78.9300 39.5506
78.9400 50.2124
78.9500 45.3828
78.9600 52.5332
78.9700 60.3526
78.9800 51.3936
78.9900 54.3908
79.0000 53.7156
79.0100 50.6619
79.0200 55.7985
79.0300 54.8196
79.0400 49.8843
79.0500 42.7465
79.0600 55.8169
79.0700 48.0932
79.0800 49.0656
79.0900 45.6673
79.1000 56.6550
79.1100 51.3760
79.1200 50.9959
79.1300 51.4700
79.1400 51.5393
79.1500 56.3011
79.1600 54.1116
79.1700 51.3229
79.1800 59.4457
79.1900 49.7024
79.2000 53.2015
79.2100 46.6889
79.2200 44.4218
79.2300 48.3940
79.2400 46.4003
79.2500 38.7159
79.2600 55.3377
79.2700 41.1381
79.2800 58.6960
79.2900 52.8246
79.3000 45.7431
79.3100 51.2599
79.3200 49.3657
79.3300 44.1857
79.3400 43.0080
79.3500 50.6577
79.3600 50.4898
79.3700 53.3205
79.3800 35.4349
79.3900 53.9570
79.4000 41.5947
79.4100 45.7537
79.4200 55.3625
79.4300 49.0229
79.4400 51.3933
79.4500 47.6998
79.4600 60.3100
79.4700 62.4964
79.4800 55.1415
79.4900 46.4174
79.5000 45.3692
79.5100 53.2335
79.5200 50.2935
79.5300 41.5740
79.5400 47.8600
79.5500 47.4748
79.5600 48.1509
79.5700 52.8831
79.5800 43.5747
79.5900 40.4068
79.6000 46.9584
79.6100 47.5324
79.6200 51.8311
79.6300 51.3765
79.6400 47.2475
79.6500 55.2166
79.6600 55.7843
79.6700 45.8575
79.6800 50.6827
79.6900 60.4570
79.7000 44.0214
79.7100 39.1887
79.7200 50.9558
79.7300 41.1791
79.7400 50.5218
79.7500 51.1065
79.7600 58.7704
79.7700 53.2651
79.7800 40.8317
79.7900 53.7918
79.8000 41.2155
79.8100 48.7521
79.8200 50.9769
79.8300 49.1513
79.8400 51.0573
79.8500 40.9604
79.8600 46.1659
79.8700 43.7797
79.8800 46.3828
79.8900 49.4610
79.9000 44.4815
79.9100 57.4516
79.9200 50.1695
79.9300 61.0959
79.9400 46.8876
79.9500 46.6881
79.9600 40.1228
79.9700 49.9575
79.9800 60.1472
79.9900 58.1306
80.0000 40.7694
80.0100 56.2992
80.0200 44.5790
80.0300 51.5056
80.0400 63.2151
80.0500 49.6066
80.0600 49.9288
80.0700 43.9952
80.0800 48.6032
80.0900 56.0702
80.1000 44.5221
80.1100 48.8232
80.1200 50.0845
80.1300 49.4947
80.1400 41.2182
80.1500 46.4327
80.1600 58.3263
80.1700 54.2971
80.1800 52.7229
80.1900 57.6758
80.2000 54.7433
80.2100 59.6468
80.2200 50.5643
80.2300 41.8797
80.2400 51.1485
80.2500 53.8386
80.2600 46.4946
80.2700 51.8147
80.2800 51.0126
80.2900 50.0891
80.3000 47.6817
80.3100 45.8442
80.3200 53.2373
80.3300 60.1065
80.3400 48.6951
80.3500 57.7886
80.3600 46.3599
80.3700 47.9183
80.3800 43.8827
80.3900 54.2159
80.4000 49.1740
80.4100 46.5458
80.4200 49.5438
80.4300 50.2848
80.4400 52.8451
80.4500 56.1100
80.4600 45.1881
80.4700 38.0049
80.4800 49.0666
80.4900 41.3915
80.5000 51.2561
80.5100 49.3689
80.5200 54.2732
80.5300 52.2760
80.5400 48.7935
80.5500 47.6263
80.5600 47.0678
80.5700 55.8596
80.5800 45.0758
80.5900 50.7574
80.6000 50.5456
80.6100 51.4424
80.6200 70.2946
80.6300 60.9720
80.6400 55.8137
80.6500 44.2628
80.6600 43.4607
80.6700 64.8306
80.6800 55.2506
80.6900 48.6273
80.7000 53.3966
80.7100 43.1108
80.7200 69.4920
80.7300 41.6561
80.7400 55.0461
80.7500 59.3502
80.7600 55.4572
80.7700 55.9770
80.7800 50.9290
80.7900 57.7413
80.8000 52.9823
80.8100 57.4720
80.8200 55.8431
80.8300 47.6187
80.8400 59.4173
80.8500 43.5237
80.8600 53.1365
80.8700 46.2470
80.8800 50.1217
80.8900 40.8024
80.9000 54.8186
80.9100 58.8875
80.9200 59.7169
80.9300 53.9792
80.9400 70.8092
80.9500 59.8027
80.9600 52.3895
80.9700 58.4361
80.9800 58.1307
80.9900 47.2626
81.0000 56.1097
81.0100 44.9989
81.0200 50.9515
81.0300 53.2689
81.0400 58.4243
81.0500 56.3493
81.0600 50.0601
81.0700 54.0355
81.0800 61.4058
81.0900 56.9289
81.1000 51.0659
81.1100 54.8585
81.1200 55.2766
81.1300 47.1623
81.1400 50.9194
81.1500 46.0293
81.1600 52.2464
81.1700 42.1463
81.1800 42.2716
81.1900 47.6478
81.2000 59.8250
81.2100 51.1147
81.2200 39.9301
81.2300 54.7250
81.2400 45.5477
81.2500 65.9903
81.2600 53.0457
81.2700 56.1990
81.2800 43.4112
81.2900 49.5767
81.3000 54.1964
81.3100 44.8202
81.3200 56.2728
81.3300 60.7220
81.3400 53.4264
81.3500 51.6711
81.3600 53.7917
81.3700 52.0198
81.3800 60.8229
81.3900 53.1151
81.4000 60.5180
81.4100 53.9916
81.4200 43.0693
81.4300 51.2505
81.4400 45.1640
81.4500 48.3323
81.4600 49.8376
81.4700 49.8219
81.4800 58.5315
81.4900 48.9727
81.5000 62.8902
81.5100 46.6392
81.5200 61.3574
81.5300 54.6296
81.5400 47.8855
81.5500 64.8260
81.5600 59.1355
81.5700 58.5484
81.5800 54.2862
81.5900 55.3095
81.6000 48.6639
81.6100 50.7784
81.6200 55.1069
81.6300 57.0634
81.6400 58.3704
81.6500 50.3770
81.6600 61.0336
81.6700 59.4334
81.6800 54.3271
81.6900 57.1856
81.7000 49.2643
81.7100 62.8255
81.7200 66.7214
81.7300 62.4468
81.7400 66.6914
81.7500 50.3444
81.7600 65.4646
81.7700 55.4876
81.7800 49.3020
81.7900 46.3844
81.8000 58.7364
81.8100 55.1854
81.8200 61.7366
81.8300 44.2873
81.8400 42.1753
81.8500 56.5837
81.8600 45.2133
81.8700 50.3079
81.8800 61.2200
81.8900 43.0297
81.9000 60.0234
81.9100 48.1667
81.9200 60.1016
81.9300 50.5808
81.9400 48.3520
81.9500 51.0443
81.9600 54.7612
81.9700 56.8512
81.9800 57.6480
81.9900 45.3961
82.0000 68.5157
82.0100 49.4874
82.0200 54.8912
82.0300 47.3689
82.0400 40.9375
82.0500 46.6960
82.0600 52.7347
82.0700 58.4687
82.0800 47.9386
82.0900 50.6239
82.1000 31.8397
82.1100 62.7180
82.1200 50.0126
82.1300 50.9175
82.1400 51.0861
82.1500 50.1468
82.1600 53.6633
82.1700 46.4919
82.1800 55.1443
82.1900 56.4992
82.2000 50.8670
82.2100 46.9510
82.2200 59.7264
82.2300 60.4220
82.2400 54.8115
82.2500 50.2014
82.2600 60.7366
82.2700 58.0089
82.2800 46.4901
82.2900 50.2055
82.3000 48.6127
82.3100 57.2514
82.3200 69.1936
82.3300 56.1801
82.3400 60.6226
82.3500 47.4736
82.3600 44.3842
82.3700 48.9345
82.3800 46.4748
82.3900 60.4458
82.4000 64.8376
82.4100 49.5235
82.4200 52.1248
82.4300 53.5201
82.4400 64.1021
82.4500 59.4692
82.4600 53.9108
82.4700 57.0376
82.4800 54.7900
82.4900 47.1960
82.5000 49.9353
82.5100 50.0364
82.5200 47.7918
82.5300 55.5879
82.5400 49.5691
82.5500 44.8485
82.5600 44.4961
82.5700 49.2676
82.5800 50.3140
82.5900 57.1945
82.6000 48.5894
82.6100 46.2291
82.6200 51.7296
82.6300 44.0739
82.6400 42.0629
82.6500 59.0067
82.6600 46.9802
82.6700 49.5358
82.6800 55.3541
82.6900 53.6320
82.7000 58.1308
82.7100 51.9129
82.7200 49.7121
82.7300 54.3249
82.7400 47.9562
82.7500 56.2817
82.7600 55.7881
82.7700 45.3417
82.7800 61.4624
82.7900 55.0397
82.8000 54.6610
82.8100 61.1685
82.8200 58.3646
82.8300 57.2692
82.8400 39.2924
82.8500 32.9053
82.8600 47.8768
82.8700 60.7567
82.8800 56.1022
82.8900 58.6212
82.9000 49.7425
82.9100 53.3029
82.9200 47.1041
82.9300 44.9460
82.9400 48.6826
82.9500 51.9443
82.9600 59.0665
82.9700 47.0927
82.9800 43.9503
82.9900 57.4114
83.0000 53.2498
83.0100 51.7266
83.0200 50.0601
83.0300 62.2280
83.0400 60.7094
83.0500 51.8236
83.0600 60.2766
83.0700 53.1839
83.0800 60.1304
83.0900 62.1568
83.1000 53.4365
83.1100 51.6184
83.1200 53.2838
83.1300 40.0784
83.1400 50.8020
83.1500 48.5629
83.1600 63.6630
83.1700 44.8123
83.1800 49.6736
83.1900 50.8241
83.2000 50.8374
83.2100 47.1383
83.2200 55.4815
83.2300 55.7324
83.2400 58.4776
83.2500 50.3052
83.2600 40.8032
83.2700 53.2804
83.2800 48.0187
83.2900 47.6902
83.3000 55.9781
83.3100 51.1615
83.3200 49.3520
83.3300 51.8771
83.3400 55.8966
83.3500 62.2812
83.3600 45.5463
83.3700 59.7640
83.3800 54.8133
83.3900 58.1566
83.4000 46.2640
83.4100 47.9433
83.4200 46.2324
83.4300 59.6960
83.4400 54.2333
83.4500 59.4095
83.4600 52.0097
83.4700 50.9161
83.4800 59.2465
83.4900 56.5996
83.5000 42.4392
83.5100 47.7692
83.5200 47.5242
83.5300 52.5454
83.5400 48.9874
83.5500 55.9522
83.5600 47.1449
83.5700 57.5691
83.5800 50.4962
83.5900 55.4976
83.6000 54.7750
83.6100 58.5676
83.6200 52.9932
83.6300 56.8328
83.6400 48.9562
83.6500 49.2843
83.6600 51.5385
83.6700 44.7978
83.6800 55.6469
83.6900 50.1005
83.7000 46.4717
83.7100 44.9496
83.7200 56.0748
83.7300 45.8778
83.7400 48.8496
83.7500 60.7579
83.7600 63.0046
83.7700 53.7872
83.7800 51.3614
83.7900 43.8762
83.8000 57.4760
83.8100 48.8395
83.8200 47.7465
83.8300 47.2400
83.8400 51.9721
83.8500 39.8587
83.8600 63.4762
83.8700 45.4627
83.8800 56.8405
83.8900 43.9645
83.9000 42.2003
83.9100 49.2978
83.9200 50.2720
83.9300 46.0148
83.9400 53.5982
83.9500 50.1111
83.9600 52.1683
83.9700 53.8322
83.9800 50.4391
83.9900 51.9127
84.0000 52.1403
84.0100 36.2926
84.0200 63.5117
84.0300 48.3666
84.0400 51.5211
84.0500 43.7837
84.0600 52.9264
84.0700 51.4922
84.0800 45.4781
84.0900 46.9536
84.1000 55.7471
84.1100 66.0353
84.1200 51.3158
84.1300 38.9942
84.1400 45.9551
84.1500 54.4443
84.1600 54.4087
84.1700 55.2054
84.1800 53.7443
84.1900 37.9884
84.2000 47.1026
84.2100 44.0816
84.2200 46.9152
84.2300 48.4335
84.2400 44.0393
84.2500 47.7217
84.2600 48.1276
84.2700 53.3747
84.2800 52.9444
84.2900 49.0116
84.3000 46.0591
84.3100 47.8607
84.3200 46.9841
84.3300 48.9209
84.3400 47.5909
84.3500 53.6272
84.3600 48.8283
84.3700 50.4974
84.3800 49.4329
84.3900 46.2332
84.4000 54.5928
84.4100 60.5577
84.4200 37.0053
84.4300 39.4036
84.4400 52.0816
84.4500 37.4370
84.4600 52.2099
84.4700 48.6305
84.4800 50.0758
84.4900 61.5609
84.5000 60.8513
84.5100 55.9068
84.5200 60.1912
84.5300 51.8425
84.5400 53.7517
84.5500 43.9164
84.5600 50.7727
84.5700 53.7797
84.5800 57.1411
84.5900 58.9500
84.6000 54.2283
84.6100 36.6760
84.6200 44.9714
84.6300 46.3839
84.6400 49.9837
84.6500 55.9903
84.6600 52.5922
84.6700 51.5914
84.6800 47.1467
84.6900 46.3159
84.7000 39.4650
84.7100 43.0196
84.7200 50.6011
84.7300 56.3053
84.7400 52.6185
84.7500 51.1561
84.7600 49.3335
84.7700 53.6508
84.7800 52.4648
84.7900 56.6574
84.8000 53.9623
84.8100 56.7680
84.8200 46.4192
84.8300 48.9236
84.8400 43.7446
84.8500 46.8104
84.8600 47.3255
84.8700 37.2848
84.8800 50.3533
84.8900 54.1572
84.9000 47.7418
84.9100 53.5962
84.9200 40.0970
84.9300 52.4636
84.9400 58.4454
84.9500 56.9957
84.9600 52.4127
84.9700 50.4385
84.9800 49.7261
84.9900 51.8321
85.0000 47.3653
85.0100 50.9391
85.0200 58.9230
85.0300 54.3912
85.0400 53.5705
85.0500 57.5979
85.0600 43.3627
85.0700 47.3105
85.0800 62.1264
85.0900 44.1345
85.1000 44.0455
85.1100 48.4927
85.1200 52.4241
85.1300 55.6289
85.1400 38.0235
85.1500 53.5628
85.1600 47.4059
85.1700 43.8364
85.1800 48.2843
85.1900 51.6791
85.2000 48.6939
85.2100 42.6366
85.2200 46.7092
85.2300 49.8736
85.2400 56.4549
85.2500 40.2577
85.2600 40.2291
85.2700 40.9978
85.2800 47.7720
85.2900 39.1543
85.3000 56.9975
85.3100 47.3718
85.3200 47.6004
85.3300 43.5753
85.3400 52.6001
85.3500 53.2351
85.3600 54.4446
85.3700 53.9128
85.3800 45.3928
85.3900 41.3068
85.4000 39.0244
85.4100 40.8557
85.4200 58.2232
85.4300 62.7451
85.4400 51.2146
85.4500 43.4320
85.4600 51.6819
85.4700 54.8060
85.4800 50.4381
85.4900 44.2047
85.5000 58.9807
85.5100 49.6391
85.5200 47.8230
85.5300 54.3786
85.5400 41.6378
85.5500 47.0831
85.5600 55.7724
85.5700 52.6216
85.5800 42.0649
85.5900 64.5292
85.6000 63.3042
85.6100 51.1706
85.6200 46.2217
85.6300 51.1704
85.6400 65.5208
85.6500 54.2443
85.6600 50.2802
85.6700 39.3876
85.6800 51.7013
85.6900 40.1214
85.7000 46.4097
85.7100 57.4537
85.7200 48.5647
85.7300 46.7780
85.7400 48.8579
85.7500 51.7343
85.7600 57.3831
85.7700 55.3738
85.7800 48.2750
85.7900 52.8684
85.8000 47.5142
85.8100 56.1448
85.8200 46.9697
85.8300 50.8568
85.8400 41.1497
85.8500 43.8607
85.8600 54.6165
85.8700 59.8224
85.8800 42.3078
85.8900 39.8125
85.9000 51.8424
85.9100 38.2526
85.9200 52.3714
85.9300 52.4852
85.9400 47.6571
85.9500 54.4156
85.9600 51.3985
85.9700 46.2601
85.9800 46.9139
85.9900 49.9314
86.0000 56.9124
86.0100 41.8359
86.0200 50.2009
86.0300 50.6374
86.0400 41.6924
86.0500 48.9895
86.0600 44.7294
86.0700 45.0869
86.0800 49.4975
86.0900 54.7858
86.1000 38.5615
86.1100 44.8466
86.1200 50.4269
86.1300 49.3886
86.1400 47.2653
86.1500 56.2080
86.1600 66.6575
86.1700 46.4107
86.1800 55.4265
86.1900 53.3033
86.2000 61.7688
86.2100 47.3609
86.2200 46.3389
86.2300 45.4691
86.2400 49.5077
86.2500 57.4452
86.2600 49.5975
86.2700 36.9164
86.2800 52.0711
86.2900 43.9216
86.3000 41.9267
86.3100 51.9182
86.3200 41.3852
86.3300 58.1542
86.3400 57.5575
86.3500 56.0356
86.3600 53.6672
86.3700 42.5239
86.3800 48.9485
86.3900 40.7798
86.4000 55.5323
86.4100 63.0638
86.4200 66.2338
86.4300 51.8060
86.4400 52.5289
86.4500 38.6869
86.4600 53.8621
86.4700 45.0869
86.4800 40.8599
86.4900 50.5507
86.5000 54.8062
86.5100 47.7980
86.5200 45.9144
86.5300 53.7889
86.5400 54.7585
86.5500 59.7657
86.5600 41.0537
86.5700 50.7103
86.5800 55.8717
86.5900 45.2529
86.6000 54.4638
86.6100 50.2352
86.6200 43.7569
86.6300 47.1155
86.6400 35.2991
86.6500 53.1874
86.6600 67.1798
86.6700 49.0824
86.6800 43.1865
86.6900 54.1195
86.7000 54.1483
86.7100 55.4811
86.7200 43.2506
86.7300 42.5522
86.7400 51.2295
86.7500 42.6443
86.7600 51.3839
86.7700 64.5310
86.7800 44.5681
86.7900 52.8719
86.8000 51.5652
86.8100 48.6776
86.8200 54.0165
86.8300 44.8496
86.8400 58.7175
86.8500 47.0749
86.8600 64.2192
86.8700 57.6904
86.8800 45.5312
86.8900 47.2401
86.9000 50.0773
86.9100 54.0599
86.9200 52.0181
86.9300 49.0879
86.9400 54.6651
86.9500 51.5907
86.9600 42.0989
86.9700 63.6143
86.9800 50.5374
86.9900 42.4844
87.0000 48.9805
87.0100 46.5876
87.0200 40.6652
87.0300 45.9562
87.0400 43.0314
87.0500 51.2586
87.0600 59.3649
87.0700 48.6686
87.0800 60.8747
87.0900 50.1542
87.1000 36.6658
87.1100 50.4368
87.1200 61.5690
87.1300 41.8267
87.1400 48.7124
87.1500 53.2612
87.1600 55.3935
87.1700 48.3869
87.1800 50.4739
87.1900 48.1364
87.2000 34.2275
87.2100 54.7501
87.2200 44.1090
87.2300 49.2493
87.2400 47.8500
87.2500 47.2404
87.2600 45.5913
87.2700 52.6744
87.2800 52.3417
87.2900 56.0293
87.3000 43.8209
87.3100 50.2630
87.3200 52.6351
87.3300 46.2153
87.3400 49.3586
87.3500 52.7660
87.3600 53.9819
87.3700 47.1890
87.3800 53.1678
87.3900 44.1598
87.4000 47.6856
87.4100 57.9409
87.4200 55.2738
87.4300 43.1259
87.4400 46.8118
87.4500 45.3814
87.4600 53.7967
87.4700 41.3560
87.4800 36.5914
87.4900 59.7048
87.5000 45.2484
87.5100 58.1055
87.5200 45.6070
87.5300 46.0464
87.5400 45.4926
87.5500 43.0875
87.5600 55.6815
87.5700 48.1834
87.5800 46.0652
87.5900 45.6176
87.6000 51.7044
87.6100 58.0629
87.6200 57.9124
87.6300 53.2247
87.6400 37.2611
87.6500 55.0597
87.6600 54.7816
87.6700 47.9671
87.6800 51.0876
87.6900 47.1994
87.7000 55.6905
87.7100 50.5520
87.7200 46.3233
87.7300 50.7348
87.7400 35.3046
87.7500 60.0235
87.7600 50.9014
87.7700 46.9847
87.7800 57.6521
87.7900 58.9845
87.8000 51.7140
87.8100 54.4138
87.8200 56.2631
87.8300 46.1898
87.8400 48.4516
87.8500 49.5673
87.8600 43.5746
87.8700 50.4416
87.8800 52.3639
87.8900 45.0054
87.9000 41.9696
87.9100 54.2335
87.9200 47.4857
87.9300 58.0903
87.9400 49.8541
87.9500 60.3131
87.9600 57.1049
87.9700 59.9094
87.9800 45.2270
87.9900 49.5665
88.0000 58.1716
88.0100 46.5869
88.0200 43.2145
88.0300 58.1870
88.0400 48.2114
88.0500 36.4110
88.0600 46.9362
88.0700 51.4401
88.0800 49.9031
88.0900 47.3764
88.1000 56.1253
88.1100 50.7139
88.1200 47.3134
88.1300 51.3442
88.1400 52.7970
88.1500 45.1662
88.1600 42.3945
88.1700 40.0657
88.1800 63.3467
88.1900 38.3898
88.2000 49.4390
88.2100 48.0456
88.2200 53.9382
88.2300 64.4051
88.2400 43.6594
88.2500 49.0247
88.2600 46.4926
88.2700 44.7375
88.2800 52.4032
88.2900 36.1342
88.3000 54.3666
88.3100 47.0994
88.3200 52.0500
88.3300 43.3355
88.3400 43.8581
88.3500 64.4637
88.3600 51.2259
88.3700 51.2800
88.3800 33.8046
88.3900 42.2894
88.4000 53.7919
88.4100 61.0417
88.4200 46.8012
88.4300 53.7722
88.4400 58.5807
88.4500 48.4624
88.4600 45.5381
88.4700 45.5289
88.4800 40.1588
88.4900 45.2106
88.5000 45.6967
88.5100 51.6191
88.5200 49.4525
88.5300 54.2019
88.5400 55.4486
88.5500 51.8254
88.5600 40.2353
88.5700 38.8119
88.5800 42.5075
88.5900 55.5482
88.6000 42.1077
88.6100 44.2201
88.6200 42.0749
88.6300 44.6066
88.6400 46.3821
88.6500 49.4431
88.6600 58.1586
88.6700 56.3940
88.6800 59.9054
88.6900 54.3393
88.7000 54.7608
88.7100 53.4990
88.7200 44.7181
88.7300 51.0618
88.7400 36.3944
88.7500 46.1486
88.7600 56.2675
88.7700 40.5618
88.7800 62.3648
88.7900 51.3457
88.8000 56.7186
88.8100 46.5593
88.8200 52.3988
88.8300 47.9383
88.8400 47.0719
88.8500 49.1539
88.8600 51.2209
88.8700 54.7385
88.8800 48.6846
88.8900 54.0185
88.9000 55.7430
88.9100 50.9520
88.9200 43.1991
88.9300 48.3547
88.9400 60.3620
88.9500 42.7295
88.9600 40.6663
88.9700 61.7167
88.9800 54.8628
88.9900 45.8172
89.0000 55.0301
89.0100 46.0414
89.0200 63.8782
89.0300 43.9434
89.0400 51.0199
89.0500 55.5846
89.0600 61.8019
89.0700 54.1311
89.0800 56.3407
89.0900 44.4752
89.1000 42.5682
89.1100 55.4082
89.1200 45.6426
89.1300 47.4245
89.1400 52.1206
89.1500 53.4411
89.1600 48.6264
89.1700 47.1620
89.1800 46.6590
89.1900 45.5369
89.2000 56.0197
89.2100 58.0249
89.2200 59.3112
89.2300 41.4898
89.2400 49.8713
89.2500 61.8237
89.2600 41.9028
89.2700 52.2851
89.2800 57.4229
89.2900 58.8137
89.3000 45.7756
89.3100 36.9716
89.3200 56.1515
89.3300 38.6808
89.3400 42.8710
89.3500 52.7886
89.3600 43.5609
89.3700 48.3353
89.3800 49.5818
89.3900 55.7103
89.4000 48.2681
89.4100 48.6473
89.4200 63.7447
89.4300 30.9465
89.4400 45.2941
89.4500 46.4432
89.4600 50.7274
89.4700 50.2482
89.4800 48.9064
89.4900 58.8035
89.5000 45.8218
89.5100 47.5708
89.5200 50.0760
89.5300 44.1384
89.5400 51.1480
89.5500 52.4283
89.5600 40.8832
89.5700 54.6277
89.5800 66.5866
89.5900 56.3259
89.6000 67.5501
89.6100 49.6378
89.6200 50.1978
89.6300 44.3306
89.6400 47.6672
89.6500 48.3965
89.6600 57.8853
89.6700 49.1421
89.6800 53.1630
89.6900 48.5188
89.7000 36.8466
89.7100 45.4538
89.7200 50.1750
89.7300 64.9208
89.7400 42.2774
89.7500 58.6684
89.7600 41.6105
89.7700 44.2058
89.7800 51.5012
89.7900 48.7106
89.8000 51.4217
89.8100 52.2923
89.8200 53.5234
89.8300 57.1692
89.8400 52.0536
89.8500 45.7398
89.8600 50.2638
89.8700 51.0069
89.8800 40.9297
89.8900 46.9497
89.9000 43.3371
89.9100 41.1162
89.9200 49.3221
89.9300 44.1411
89.9400 46.7076
89.9500 37.1358
89.9600 40.9563
89.9700 42.3993
89.9800 46.4176
89.9900 48.8242
90.0000 48.9685
90.0100 39.1713
90.0200 64.1227
90.0300 53.4426
90.0400 40.3441
90.0500 48.1718
90.0600 47.2255
90.0700 40.9840
90.0800 53.6596
90.0900 65.2750
90.1000 58.6193
90.1100 54.9830
90.1200 53.0026
90.1300 52.4255
90.1400 60.5114
90.1500 48.7296
90.1600 47.6742
90.1700 63.6824
90.1800 36.7844
90.1900 61.0239
90.2000 44.3345
90.2100 46.9701
90.2200 49.5933
90.2300 48.2434
90.2400 43.7849
90.2500 60.5855
90.2600 53.7551
90.2700 50.6230
90.2800 52.2295
90.2900 51.2472
90.3000 47.4868
90.3100 60.7924
90.3200 45.0267
90.3300 50.9838
90.3400 53.7526
90.3500 45.0624
90.3600 50.3659
90.3700 64.1608
90.3800 47.8548
90.3900 50.7729
90.4000 56.2143
90.4100 42.1558
90.4200 52.6916
90.4300 42.4264
90.4400 56.3787
90.4500 37.2562
90.4600 58.4457
90.4700 45.6666
90.4800 43.0985
90.4900 42.0690
90.5000 49.1739
90.5100 52.2980
90.5200 44.0133
90.5300 45.6023
90.5400 45.7271
90.5500 48.7794
90.5600 49.2696
90.5700 58.6753
90.5800 56.9424
90.5900 65.4563
90.6000 55.1071
90.6100 57.4504
90.6200 43.2045
90.6300 51.2641
90.6400 57.5029
90.6500 51.9229
90.6600 55.8010
90.6700 43.5973
90.6800 51.5417
90.6900 48.9161
90.7000 43.1833
90.7100 53.5191
90.7200 38.9398
90.7300 49.9528
90.7400 51.6288
90.7500 48.6173
90.7600 57.0430
90.7700 47.9429
90.7800 48.8687
90.7900 48.1440
90.8000 53.3493
90.8100 48.6957
90.8200 58.6592
90.8300 64.5068
90.8400 40.8861
90.8500 47.6683
90.8600 46.1465
90.8700 52.1209
90.8800 44.7929
90.8900 59.4393
90.9000 46.8542
90.9100 36.4733
90.9200 46.5190
90.9300 47.8403
90.9400 46.4953
90.9500 41.4196
90.9600 41.8540
90.9700 40.7759
90.9800 42.6816
90.9900 55.8593
91.0000 53.2846
91.0100 51.7256
91.0200 42.0623
91.0300 48.8181
91.0400 54.5589
91.0500 39.6864
91.0600 43.6955
91.0700 57.6756
91.0800 67.7978
91.0900 53.5623
91.1000 41.6089
91.1100 51.0399
91.1200 50.3464
91.1300 48.7136
91.1400 52.3663
91.1500 57.3701
91.1600 46.0227
91.1700 61.0527
91.1800 51.5158
91.1900 45.3854
91.2000 44.4814
91.2100 56.8881
91.2200 54.7524
91.2300 49.8425
91.2400 50.1578
91.2500 54.0227
91.2600 54.3786
91.2700 48.5177
91.2800 40.3256
91.2900 56.0977
91.3000 46.6308
91.3100 53.6819
91.3200 52.1523
91.3300 50.1833
91.3400 49.6294
91.3500 39.8833
91.3600 49.1319
91.3700 44.1524
91.3800 50.2292
91.3900 56.4263
91.4000 49.8184
91.4100 46.1874
91.4200 47.9113
91.4300 62.2772
91.4400 38.6672
91.4500 49.0595
91.4600 50.8882
91.4700 50.0612
91.4800 41.7436
91.4900 48.6772
91.5000 44.3288
91.5100 49.6604
91.5200 48.6831
91.5300 46.2937
91.5400 51.4839
91.5500 45.2942
91.5600 43.7491
91.5700 47.9246
91.5800 59.9643
91.5900 58.6129
91.6000 46.3480
91.6100 42.5052
91.6200 54.2886
91.6300 56.4270
91.6400 34.4880
91.6500 51.6622
91.6600 40.7810
91.6700 53.5595
91.6800 45.4641
91.6900 39.9522
91.7000 43.7312
91.7100 45.1036
91.7200 49.4184
91.7300 38.6544
91.7400 36.3910
91.7500 53.6206
91.7600 60.2635
91.7700 48.4423
91.7800 49.0717
91.7900 54.7903
91.8000 57.0050
91.8100 48.2017
91.8200 43.0826
91.8300 39.9578
91.8400 45.7786
91.8500 37.4034
91.8600 51.0943
91.8700 51.0799
91.8800 53.7997
91.8900 42.5223
91.9000 43.7496
91.9100 44.3538
91.9200 45.3778
91.9300 42.9573
91.9400 44.6590
91.9500 51.9011
91.9600 39.8913
91.9700 47.0818
91.9800 43.6691
91.9900 40.6162
92.0000 51.5338
92.0100 51.0236
92.0200 50.2142
92.0300 39.9119
92.0400 44.7812
92.0500 47.1329
92.0600 48.6063
92.0700 59.6024
92.0800 45.4462
92.0900 43.8487
92.1000 44.7359
92.1100 54.3003
92.1200 55.7446
92.1300 64.3398
92.1400 51.7842
92.1500 54.5014
92.1600 61.6066
92.1700 40.3758
92.1800 68.7033
92.1900 54.3505
92.2000 50.8264
92.2100 52.4340
92.2200 34.6869
92.2300 48.8635
92.2400 50.9802
92.2500 38.1758
92.2600 45.0193
92.2700 64.7354
92.2800 54.2028
92.2900 51.9581
92.3000 63.1613
92.3100 45.5933
92.3200 45.8043
92.3300 54.3947
92.3400 44.2224
92.3500 53.6327
92.3600 49.6176
92.3700 39.6492
92.3800 47.5975
92.3900 45.8368
92.4000 52.0418
92.4100 54.2078
92.4200 56.5588
92.4300 53.3187
92.4400 47.6555
92.4500 52.6552
92.4600 54.7986
92.4700 44.7882
92.4800 45.7441
92.4900 51.9192
92.5000 46.7839
92.5100 54.1991
92.5200 56.4814
92.5300 45.4134
92.5400 43.4343
92.5500 53.1339
92.5600 43.6934
92.5700 44.7133
92.5800 51.5039
92.5900 58.4978
92.6000 60.8210
92.6100 39.0169
92.6200 50.7767
92.6300 60.3345
92.6400 49.4786
92.6500 63.7522
92.6600 54.6711
92.6700 55.1446
92.6800 40.9832
92.6900 41.4561
92.7000 48.3933
92.7100 45.2947
92.7200 35.4107
92.7300 39.7695
92.7400 48.3067
92.7500 37.6314
92.7600 37.5329
92.7700 55.1615
92.7800 41.7627
92.7900 40.6902
92.8000 49.1508
92.8100 55.3040
92.8200 43.0758
92.8300 48.2553
92.8400 46.7124
92.8500 66.3888
92.8600 43.8993
92.8700 55.3054
92.8800 48.0473
92.8900 54.3606
92.9000 45.3000
92.9100 54.0189
92.9200 50.5601
92.9300 58.2556
92.9400 55.6026
92.9500 41.4216
92.9600 44.7787
92.9700 43.8571
92.9800 48.7324
92.9900 44.6970
93.0000 48.8919
93.0100 57.9140
93.0200 38.0438
93.0300 48.7995
93.0400 49.3559
93.0500 66.4554
93.0600 59.6608
93.0700 56.5917
93.0800 50.0206
93.0900 46.6595
93.1000 54.8686
93.1100 42.4865
93.1200 46.6091
93.1300 47.0752
93.1400 42.2288
93.1500 45.3658
93.1600 39.4696
93.1700 49.0168
93.1800 37.8605
93.1900 42.1916
93.2000 51.3175
93.2100 41.6957
93.2200 43.4280
93.2300 42.7183
93.2400 38.6904
93.2500 39.2811
93.2600 44.4697
93.2700 48.9253
93.2800 47.6736
93.2900 43.3658
93.3000 41.0275
93.3100 51.1465
93.3200 61.2590
93.3300 48.9462
93.3400 51.0599
93.3500 56.9340
93.3600 56.0868
93.3700 38.0580
93.3800 46.6544
93.3900 65.9397
93.4000 63.4449
93.4100 50.0489
93.4200 63.6138
93.4300 58.1294
93.4400 46.7112
93.4500 57.9327
93.4600 54.8421
93.4700 57.4512
93.4800 50.5959
93.4900 45.3272
93.5000 50.4903
93.5100 44.4858
93.5200 43.0221
93.5300 54.9064
93.5400 45.3875
93.5500 64.0688
93.5600 52.9821
93.5700 47.4551
93.5800 49.0590
93.5900 39.8016
93.6000 45.8147
93.6100 58.6235
93.6200 46.7672
93.6300 51.2480
93.6400 37.4540
93.6500 51.7799
93.6600 54.5059
93.6700 45.6126
93.6800 50.4647
93.6900 49.1623
93.7000 48.5847
93.7100 42.4736
93.7200 50.5220
93.7300 46.2580
93.7400 49.7425
93.7500 40.6898
93.7600 54.1953
93.7700 49.5937
93.7800 49.8897
93.7900 50.2449
93.8000 52.1383
93.8100 52.5200
93.8200 54.0699
93.8300 48.5421
93.8400 48.3952
93.8500 43.2490
93.8600 31.3397
93.8700 37.4859
93.8800 45.3850
93.8900 45.0854
93.9000 56.6655
93.9100 43.4297
93.9200 54.0159
93.9300 48.2355
93.9400 53.0391
93.9500 43.4952
93.9600 47.6658
93.9700 55.4848
93.9800 52.5908
93.9900 45.6699
94.0000 62.2822
94.0100 55.2067
94.0200 49.3223
94.0300 51.8064
94.0400 45.8574
94.0500 39.7992
94.0600 49.0158
94.0700 57.4419
94.0800 46.8782
94.0900 54.9381
94.1000 52.9230
94.1100 48.2618
94.1200 51.7503
94.1300 49.2312
94.1400 36.8579
94.1500 45.0450
94.1600 50.2223
94.1700 51.4366
94.1800 39.4131
94.1900 47.6620
94.2000 51.8641
94.2100 45.9646
94.2200 50.5814
94.2300 41.1650
94.2400 44.3684
94.2500 42.2778
94.2600 49.7875
94.2700 58.7031
94.2800 45.5653
94.2900 48.3738
94.3000 44.2982
94.3100 44.6065
94.3200 44.7613
94.3300 54.0162
94.3400 48.7885
94.3500 51.2106
94.3600 46.5640
94.3700 50.0621
94.3800 51.7962
94.3900 56.4191
94.4000 45.0613
94.4100 52.1032
94.4200 49.0973
94.4300 63.6301
94.4400 50.5977
94.4500 44.1689
94.4600 45.4903
94.4700 49.0449
94.4800 47.6482
94.4900 57.5006
94.5000 48.2249
94.5100 56.0285
94.5200 54.4097
94.5300 54.3298
94.5400 50.8584
94.5500 48.5930
94.5600 54.4326
94.5700 44.8183
94.5800 57.0851
94.5900 43.5348
94.6000 49.6623
94.6100 44.9812
94.6200 53.0601
94.6300 45.8683
94.6400 48.7890
94.6500 49.7161
94.6600 36.3900
94.6700 41.6124
94.6800 33.7035
94.6900 49.4169
94.7000 48.7112
94.7100 44.0632
94.7200 56.7197
94.7300 47.9085
94.7400 44.0414
94.7500 43.8425
94.7600 38.8600
94.7700 47.5124
94.7800 49.1191
94.7900 48.1907
94.8000 47.8615
94.8100 57.7400
94.8200 64.1472
94.8300 49.1387
94.8400 39.9161
94.8500 51.4667
94.8600 44.5928
94.8700 46.4420
94.8800 62.3923
94.8900 49.6358
94.9000 39.8636
94.9100 42.2211
94.9200 47.0878
94.9300 47.7594
94.9400 51.0325
94.9500 34.5047
94.9600 51.3667
94.9700 37.8586
94.9800 39.6635
94.9900 40.7913
95.0000 54.7992
95.0100 37.6626
95.0200 52.4500
95.0300 51.4960
95.0400 55.1550
95.0500 41.5921
95.0600 39.6900
95.0700 48.9521
95.0800 40.3112
95.0900 48.5120
95.1000 56.0738
95.1100 47.5407
95.1200 53.4657
95.1300 53.9327
95.1400 53.9864
95.1500 50.9904
95.1600 54.0266
95.1700 56.1564
95.1800 58.5406
95.1900 43.2549
95.2000 55.3432
95.2100 40.7034
95.2200 43.8200
95.2300 45.3883
95.2400 51.4036
95.2500 50.1330
95.2600 42.5478
95.2700 50.7194
95.2800 39.6449
95.2900 40.2204
95.3000 58.2607
95.3100 48.3919
95.3200 47.3808
95.3300 41.3632
95.3400 39.6446
95.3500 48.2475
95.3600 31.7659
95.3700 50.0628
95.3800 45.8556
95.3900 42.4673
95.4000 46.6552
95.4100 50.1289
95.4200 54.1909
95.4300 57.2408
95.4400 63.3033
95.4500 38.8882
95.4600 42.5726
95.4700 44.7197
95.4800 58.6884
95.4900 53.9274
95.5000 49.7759
95.5100 50.8807
95.5200 40.9974
95.5300 55.1131
95.5400 46.9933
95.5500 43.4403
95.5600 47.5739
95.5700 53.4487
95.5800 51.7596
95.5900 52.5614
95.6000 50.2152
95.6100 61.8270
95.6200 53.0258
95.6300 51.0297
95.6400 61.6414
95.6500 47.0935
95.6600 54.3376
95.6700 52.8652
95.6800 48.5771
95.6900 54.5143
95.7000 56.4384
95.7100 53.5325
95.7200 55.0066
95.7300 58.8100
95.7400 54.8306
95.7500 44.9037
95.7600 46.4663
95.7700 53.1084
95.7800 43.6082
95.7900 47.3218
95.8000 50.5273
95.8100 47.5197
95.8200 45.4624
95.8300 51.7293
95.8400 57.0103
95.8500 56.5953
95.8600 54.3502
95.8700 41.9502
95.8800 47.4517
95.8900 47.7257
95.9000 45.9782
95.9100 42.6618
95.9200 50.9245
95.9300 54.4975
95.9400 44.2574
95.9500 56.0010
95.9600 46.5045
95.9700 50.2961
95.9800 43.9520
95.9900 60.2773
96.0000 55.2201
96.0100 51.6354
96.0200 53.3980
96.0300 57.3503
96.0400 52.3308
96.0500 53.7168
96.0600 66.3094
96.0700 43.2285
96.0800 60.0589
96.0900 50.4317
96.1000 58.7710
96.1100 47.9109
96.1200 40.6860
96.1300 48.4517
96.1400 55.1315
96.1500 54.3048
96.1600 46.8883
96.1700 63.6036
96.1800 46.4922
96.1900 59.3152
96.2000 46.1130
96.2100 46.8962
96.2200 53.1546
96.2300 51.5013
96.2400 53.1522
96.2500 49.3219
96.2600 48.0265
96.2700 48.5187
96.2800 47.2738
96.2900 44.3150
96.3000 48.4448
96.3100 54.3548
96.3200 47.7258
96.3300 50.3964
96.3400 48.7827
96.3500 49.7633
96.3600 47.0719
96.3700 69.0246
96.3800 38.9273
96.3900 52.8136
96.4000 61.7897
96.4100 49.2584
96.4200 52.0882
96.4300 53.0935
96.4400 59.6895
96.4500 58.1995
96.4600 51.3407
96.4700 35.1994
96.4800 51.8048
96.4900 52.6875
96.5000 55.7332
96.5100 62.9070
96.5200 48.2180
96.5300 65.7022
96.5400 47.5863
96.5500 54.3233
96.5600 53.8659
96.5700 53.9381
96.5800 46.2810
96.5900 63.9055
96.6000 61.6017
96.6100 49.7682
96.6200 46.2857
96.6300 53.3170
96.6400 45.1485
96.6500 47.7860
96.6600 51.8106
96.6700 56.6409
96.6800 52.8618
96.6900 51.3445
96.7000 48.2797
96.7100 51.6170
96.7200 46.3093
96.7300 54.6788
96.7400 62.9415
96.7500 52.2528
96.7600 53.3933
96.7700 58.4012
96.7800 61.9513
96.7900 49.1542
96.8000 55.2864
96.8100 58.1825
96.8200 67.5240
96.8300 50.6478
96.8400 42.2546
96.8500 49.5307
96.8600 50.3901
96.8700 55.7247
96.8800 54.2167
96.8900 40.7709
96.9000 56.7754
96.9100 60.2241
96.9200 63.5721
96.9300 62.8772
96.9400 49.4203
96.9500 47.1089
96.9600 54.6292
96.9700 46.4925
96.9800 55.7598
96.9900 49.2581
97.0000 62.5162
97.0100 64.2318
97.0200 51.8482
97.0300 64.9649
97.0400 51.8565
97.0500 40.6654
97.0600 60.0847
97.0700 41.3126
97.0800 53.4156
97.0900 47.0751
97.1000 49.3527
97.1100 52.5846
97.1200 53.6493
97.1300 47.7189
97.1400 52.0926
97.1500 47.5546
97.1600 59.5850
97.1700 50.7228
97.1800 48.3201
97.1900 57.1980
97.2000 57.9779
97.2100 57.1752
97.2200 50.3995
97.2300 45.9247
97.2400 61.1631
97.2500 60.0436
97.2600 57.1605
97.2700 44.9740
97.2800 45.7516
97.2900 54.8781
97.3000 60.0157
97.3100 62.4153
97.3200 59.3952
97.3300 50.8596
97.3400 58.8102
97.3500 57.7889
97.3600 48.2423
97.3700 46.2306
97.3800 46.4389
97.3900 53.3193
97.4000 64.0559
97.4100 68.8358
97.4200 51.2530
97.4300 52.5833
97.4400 54.9769
97.4500 49.7565
97.4600 58.2525
97.4700 68.2768
97.4800 54.3560
97.4900 55.9667
97.5000 51.2882
97.5100 46.1144
97.5200 50.2918
97.5300 48.6622
97.5400 55.4348
97.5500 59.7421
97.5600 51.9710
97.5700 48.3540
97.5800 59.7297
97.5900 50.6332
97.6000 46.6674
97.6100 57.9251
97.6200 47.6641
97.6300 47.7808
97.6400 43.6869
97.6500 48.6362
97.6600 55.3810
97.6700 61.7115
97.6800 42.1274
97.6900 60.6862
97.7000 58.4134
97.7100 50.3948
97.7200 44.9263
97.7300 56.5959
97.7400 48.0184
97.7500 49.8816
97.7600 50.6399
97.7700 58.8202
97.7800 51.3254
97.7900 49.7358
97.8000 58.6323
97.8100 66.5355
97.8200 45.7758
97.8300 50.9309
97.8400 57.4976
97.8500 40.7485
97.8600 48.5294
97.8700 54.6879
97.8800 48.8948
97.8900 55.7006
97.9000 50.1210
97.9100 65.2048
97.9200 43.8988
97.9300 50.2438
97.9400 48.8495
97.9500 52.6548
97.9600 60.4407
97.9700 53.3860
97.9800 59.3105
97.9900 57.2931
98.0000 58.3008
98.0100 41.0203
98.0200 56.3552
98.0300 50.4089
98.0400 55.8765
98.0500 48.7037
98.0600 43.4003
98.0700 50.5487
98.0800 55.9835
98.0900 62.4555
98.1000 54.6399
98.1100 49.5282
98.1200 58.7790
98.1300 48.5390
98.1400 48.2859
98.1500 43.9550
98.1600 44.4677
98.1700 45.3046
98.1800 55.1010
98.1900 62.5262
98.2000 55.4331
98.2100 63.9331
98.2200 45.9974
98.2300 48.4202
98.2400 56.0688
98.2500 42.2384
98.2600 53.9803
98.2700 55.2875
98.2800 47.5568
98.2900 61.3886
98.3000 51.8654
98.3100 51.7516
98.3200 54.8815
98.3300 54.8579
98.3400 43.4354
98.3500 36.9903
98.3600 66.7893
98.3700 58.5828
98.3800 59.6905
98.3900 49.1451
98.4000 51.6340
98.4100 55.1892
98.4200 51.7037
98.4300 40.5055
98.4400 47.2353
98.4500 48.3722
98.4600 68.4336
98.4700 65.4916
98.4800 53.0903
98.4900 51.3327
98.5000 42.8202
98.5100 45.8294
98.5200 54.5908
98.5300 65.9636
98.5400 52.0160
98.5500 53.8672
98.5600 51.7361
98.5700 48.7599
98.5800 50.2186
98.5900 53.0154
98.6000 51.3700
98.6100 55.8272
98.6200 62.7328
98.6300 44.9350
98.6400 51.4404
98.6500 43.9897
98.6600 57.6929
98.6700 41.0446
98.6800 49.6067
98.6900 51.9721
98.7000 56.7038
98.7100 49.4224
98.7200 44.8255
98.7300 42.3621
98.7400 59.4858
98.7500 49.0829
98.7600 54.2915
98.7700 52.7967
98.7800 53.1005
98.7900 62.8889
98.8000 59.3517
98.8100 49.9414
98.8200 60.7093
98.8300 36.1821
98.8400 58.1742
98.8500 51.0230
98.8600 58.8763
98.8700 48.0302
98.8800 56.0238
98.8900 51.6480
98.9000 57.7517
98.9100 57.9763
98.9200 55.6312
98.9300 54.2932
98.9400 52.4945
98.9500 59.4328
98.9600 53.7533
98.9700 75.0728
98.9800 54.5996
98.9900 55.8837
99.0000 59.3557
99.0100 49.7684
99.0200 51.5190
99.0300 56.8708
99.0400 55.3696
99.0500 45.6080
99.0600 52.4521
99.0700 54.4108
99.0800 52.8064
99.0900 48.7116
99.1000 53.9189
99.1100 57.3899
99.1200 50.0471
99.1300 53.1798
99.1400 61.3909
99.1500 50.4601
99.1600 39.6520
99.1700 60.6461
99.1800 57.4100
99.1900 49.6188
99.2000 51.4439
99.2100 70.6138
99.2200 61.8793
99.2300 57.1073
99.2400 40.6480
99.2500 60.1865
99.2600 54.4975
99.2700 59.7914
99.2800 50.4710
99.2900 62.0142
99.3000 54.2757
99.3100 50.2651
99.3200 40.2717
99.3300 48.2981
99.3400 52.7149
99.3500 50.6681
99.3600 59.8969
99.3700 51.1790
99.3800 46.0584
99.3900 57.2784
99.4000 50.8343
99.4100 52.9768
99.4200 62.5929
99.4300 56.2604
99.4400 53.9671
99.4500 52.6619
99.4600 51.6784
99.4700 58.9689
99.4800 56.1147
99.4900 59.1748
99.5000 48.4226
99.5100 50.7281
99.5200 53.6757
99.5300 53.4641
99.5400 52.2471
99.5500 60.2503
99.5600 46.5090
99.5700 48.1130
99.5800 40.6143
99.5900 49.7964
99.6000 60.6258
99.6100 61.2586
99.6200 51.9746
99.6300 52.0608
99.6400 54.3870
99.6500 56.3870
99.6600 44.6103
99.6700 44.2169
99.6800 54.7932
99.6900 42.5095
99.7000 50.6851
99.7100 43.9348
99.7200 48.0613
99.7300 48.5801
99.7400 49.4347
99.7500 50.0409
99.7600 42.3748
99.7700 55.6405
99.7800 63.5920
99.7900 60.5968
99.8000 57.5676
99.8100 57.5376
99.8200 52.9024
99.8300 53.3173
99.8400 48.8539
99.8500 49.6707
99.8600 46.9546
99.8700 44.6341
99.8800 48.1211
99.8900 60.2859
99.9000 55.3859
99.9100 55.8459
99.9200 55.6854
99.9300 40.8878
99.9400 44.7818
99.9500 51.6873
99.9600 55.1374
99.9700 52.5039
99.9800 58.3202
99.9900 53.5394
100.0000 61.2681
100.0100 44.4456
100.0200 53.8271
100.0300 49.8747
100.0400 56.0829
100.0500 45.3916
100.0600 48.4653
100.0700 54.2131
100.0800 49.6670
100.0900 59.7196
100.1000 58.2658
100.1100 60.7831
100.1200 49.0295
100.1300 45.5913
100.1400 53.2587
100.1500 63.0416
100.1600 46.5517
100.1700 46.4614
100.1800 51.6927
100.1900 61.9400
100.2000 46.6989
100.2100 48.1886
100.2200 63.1336
100.2300 55.8459
100.2400 57.7885
100.2500 52.0804
100.2600 48.4188
100.2700 45.1337
100.2800 47.0669
100.2900 49.4814
100.3000 52.6075
100.3100 48.1391
100.3200 60.6307
100.3300 40.8096
100.3400 33.7824
100.3500 59.1131
100.3600 41.3791
100.3700 53.3191
100.3800 55.8522
100.3900 50.3289
100.4000 54.2132
100.4100 40.8977
100.4200 47.5704
100.4300 51.9834
100.4400 52.5934
100.4500 62.5429
100.4600 57.3191
100.4700 45.8726
100.4800 45.6544
100.4900 49.8343
100.5000 50.0273
100.5100 49.0353
100.5200 42.6879
100.5300 61.4247
100.5400 55.5602
100.5500 49.6290
100.5600 47.7517
100.5700 49.5300
100.5800 58.0992
100.5900 53.6295
100.6000 48.6860
100.6100 46.1120
100.6200 48.1508
100.6300 51.7762
100.6400 46.0071
100.6500 50.3600
100.6600 59.2623
100.6700 61.6163
100.6800 50.7679
100.6900 57.1418
100.7000 63.6614
100.7100 56.4938
100.7200 58.8147
100.7300 46.8565
100.7400 57.3417
100.7500 59.2657
100.7600 51.9456
100.7700 56.3559
100.7800 49.7827
100.7900 52.0907
100.8000 55.6803
100.8100 48.2247
100.8200 63.9002
100.8300 44.3761
100.8400 69.9143
100.8500 59.0813
100.8600 46.2342
100.8700 48.4739
100.8800 48.8135
100.8900 52.7608
100.9000 59.1080
100.9100 65.8982
100.9200 48.1368
100.9300 51.8960
100.9400 42.5532
100.9500 51.3610
100.9600 48.7782
100.9700 54.5557
100.9800 42.6010
100.9900 54.4694
101.0000 50.4813
101.0100 52.9772
101.0200 51.8982
101.0300 45.0737
101.0400 53.0862
101.0500 40.3342
101.0600 54.9813
101.0700 59.2031
101.0800 40.0140
101.0900 38.2300
101.1000 43.4928
101.1100 46.1244
101.1200 52.5105
101.1300 55.9948
101.1400 57.3951
101.1500 53.1971
101.1600 56.0657
101.1700 58.3799
101.1800 52.1248
101.1900 52.1364
101.2000 50.3084
101.2100 54.2612
101.2200 58.7471
101.2300 41.7428
101.2400 61.8557
101.2500 59.5007
101.2600 46.4361
101.2700 45.2209
101.2800 46.3649
101.2900 49.9080
101.3000 53.0009
101.3100 51.9680
101.3200 51.0462
101.3300 55.7976
101.3400 55.5003
101.3500 38.8612
101.3600 36.9946
101.3700 56.8012
101.3800 41.0429
101.3900 51.9819
101.4000 56.2325
101.4100 53.4781
101.4200 54.7390
101.4300 62.5492
101.4400 54.2124
101.4500 52.0219
101.4600 46.0841
101.4700 47.1243
101.4800 58.2609
101.4900 52.1326
101.5000 37.3532
101.5100 50.9129
101.5200 55.7294
101.5300 52.7321
101.5400 54.1659
101.5500 49.0917
101.5600 59.4397
101.5700 44.4145
101.5800 51.9031
101.5900 49.5393
101.6000 51.3629
101.6100 49.7574
101.6200 49.9378
101.6300 50.3966
101.6400 44.8765
101.6500 43.9660
101.6600 42.9214
101.6700 63.8707
101.6800 45.2993
101.6900 47.1938
101.7000 66.8619
101.7100 59.2785
101.7200 43.5181
101.7300 47.7999
101.7400 61.0986
101.7500 46.0448
101.7600 49.8604
101.7700 48.5716
101.7800 52.4965
101.7900 48.3813
101.8000 43.4237
101.8100 56.0360
101.8200 55.9492
101.8300 55.8209
101.8400 43.5040
101.8500 56.8262
101.8600 53.9133
101.8700 50.2640
101.8800 63.4627
101.8900 45.1556
101.9000 57.0006
101.9100 47.9069
101.9200 53.5198
101.9300 51.5504
101.9400 45.6167
101.9500 51.9451
101.9600 51.8646
101.9700 58.8937
101.9800 40.9997
101.9900 47.9891
102.0000 51.5863
102.0100 52.1099
102.0200 49.3478
102.0300 53.0064
102.0400 63.1183
102.0500 53.2635
102.0600 65.1452
102.0700 50.6260
102.0800 57.3604
102.0900 51.5764
102.1000 54.7662
102.1100 54.3859
102.1200 44.6560
102.1300 53.1943
102.1400 46.7018
102.1500 43.7719
102.1600 53.1588
102.1700 45.4782
102.1800 61.2278
102.1900 44.5994
102.2000 52.0210
102.2100 65.4933
102.2200 54.4441
102.2300 51.1263
102.2400 47.4193
102.2500 38.8134
102.2600 57.3030
102.2700 48.1065
102.2800 48.7886
102.2900 62.6500
102.3000 39.7128
102.3100 46.9627
102.3200 55.6944
102.3300 50.8751
102.3400 51.0453
102.3500 46.3344
102.3600 45.2325
102.3700 55.2929
102.3800 61.4016
102.3900 51.5209
102.4000 50.2870
102.4100 69.6914
102.4200 44.0399
102.4300 50.7130
102.4400 60.8138
102.4500 59.8262
102.4600 63.0689
102.4700 57.3436
102.4800 59.6928
102.4900 46.4813
102.5000 44.8663
102.5100 49.5394
102.5200 54.0207
102.5300 57.2204
102.5400 44.8844
102.5500 44.9785
102.5600 44.3798
102.5700 48.6471
102.5800 50.1104
102.5900 43.6211
102.6000 43.9437
102.6100 36.7498
102.6200 47.0097
102.6300 50.7555
102.6400 54.5099
102.6500 54.2848
102.6600 55.3954
102.6700 55.6478
102.6800 48.8532
102.6900 53.4651
102.7000 42.1847
102.7100 38.1101
102.7200 50.0484
102.7300 58.1259
102.7400 46.8877
102.7500 50.5416
102.7600 50.1002
102.7700 46.0454
102.7800 54.8455
102.7900 59.1779
102.8000 53.5849
102.8100 52.4699
102.8200 42.0421
102.8300 44.0238
102.8400 50.3878
102.8500 57.1886
102.8600 45.2505
102.8700 49.1884
102.8800 44.3535
102.8900 44.5280
102.9000 44.3070
102.9100 53.9218
102.9200 43.4330
102.9300 53.6038
102.9400 55.5472
102.9500 34.8362
102.9600 30.1589
102.9700 53.3424
102.9800 40.6110
102.9900 43.6042
103.0000 55.6858
103.0100 60.0851
103.0200 46.9684
103.0300 60.9916
103.0400 49.2095
103.0500 63.0684
103.0600 59.7008
103.0700 62.6962
103.0800 45.1197
103.0900 56.8216
103.1000 46.3494
103.1100 54.0656
103.1200 38.8737
103.1300 53.3858
103.1400 41.5010
103.1500 45.1084
103.1600 53.3427
103.1700 40.2844
103.1800 36.1741
103.1900 42.4321
103.2000 56.9159
103.2100 61.3231
103.2200 58.6391
103.2300 53.0419
103.2400 59.8606
103.2500 45.8368
103.2600 38.1755
103.2700 44.6043
103.2800 54.8934
103.2900 52.0025
103.3000 49.5358
103.3100 53.7942
103.3200 48.3465
103.3300 47.2058
103.3400 51.7472
103.3500 48.8041
103.3600 46.0498
103.3700 47.2414
103.3800 59.5827
103.3900 41.7114
103.4000 51.6278
103.4100 61.2255
103.4200 57.7867
103.4300 47.2524
103.4400 50.2871
103.4500 58.3270
103.4600 49.0447
103.4700 48.5006
103.4800 60.8072
103.4900 36.2563
103.5000 49.3310
103.5100 48.5095
103.5200 56.8737
103.5300 55.6646
103.5400 59.2505
103.5500 55.4317
103.5600 50.5359
103.5700 39.7351
103.5800 49.9178
103.5900 53.5928
103.6000 58.6137
103.6100 62.9535
103.6200 56.6452
103.6300 51.8469
103.6400 47.2101
103.6500 54.7559
103.6600 62.2193
103.6700 49.4604
103.6800 50.0856
103.6900 39.9228
103.7000 52.2860
103.7100 46.5693
103.7200 45.5087
103.7300 48.7557
103.7400 44.3519
103.7500 46.3302
103.7600 65.6054
103.7700 58.9926
103.7800 49.3727
103.7900 53.8260
103.8000 50.7581
103.8100 58.0339
103.8200 44.6811
103.8300 50.9902
103.8400 57.3614
103.8500 63.7686
103.8600 55.8715
103.8700 53.1649
103.8800 52.9315
103.8900 56.9709
103.9000 49.0388
103.9100 51.0374
103.9200 53.4979
103.9300 40.3405
103.9400 54.5463
103.9500 40.4400
103.9600 33.9600
103.9700 49.4279
103.9800 60.0094
103.9900 48.6549
104.0000 52.0965
104.0100 46.9156
104.0200 51.8265
104.0300 49.5644
104.0400 38.8610
104.0500 48.7096
104.0600 52.5799
104.0700 65.1217
104.0800 52.2556
104.0900 52.6445
104.1000 65.2310
104.1100 48.5497
104.1200 52.9069
104.1300 51.5968
104.1400 51.8527
104.1500 56.1083
104.1600 51.0613
104.1700 58.5099
104.1800 60.4256
104.1900 61.6457
104.2000 54.4038
104.2100 54.2017
104.2200 50.2285
104.2300 47.3291
104.2400 41.7837
104.2500 54.3679
104.2600 51.1753
104.2700 49.3068
104.2800 55.8219
104.2900 46.5934
104.3000 56.1498
104.3100 46.5341
104.3200 51.5344
104.3300 45.2161
104.3400 57.2421
104.3500 45.2106
104.3600 52.8146
104.3700 41.8575
104.3800 62.7894
104.3900 46.0388
104.4000 48.6152
104.4100 51.0140
104.4200 54.6256
104.4300 52.6163
104.4400 53.9006
104.4500 44.4732
104.4600 44.9687
104.4700 45.8768
104.4800 64.4299
104.4900 57.1747
104.5000 58.1610
104.5100 41.5644
104.5200 46.6142
104.5300 49.8015
104.5400 43.5428
104.5500 61.3832
104.5600 48.8960
104.5700 55.3341
104.5800 44.6616
104.5900 42.8062
104.6000 60.6482
104.6100 57.0475
104.6200 49.6778
104.6300 64.3135
104.6400 47.5256
104.6500 53.6002
104.6600 51.5409
104.6700 66.7321
104.6800 49.5822
104.6900 55.8362
104.7000 57.2869
104.7100 44.2624
104.7200 60.7334
104.7300 50.1627
104.7400 49.6536
104.7500 51.4875
104.7600 55.0782
104.7700 42.2609
104.7800 54.5936
104.7900 47.7444
104.8000 40.2907
104.8100 47.7389
104.8200 53.8680
104.8300 45.9351
104.8400 43.7687
104.8500 46.9479
104.8600 49.2237
104.8700 54.8687
104.8800 44.7336
104.8900 55.5717
104.9000 47.5327
104.9100 57.4380
104.9200 42.8218
104.9300 44.0478
104.9400 57.8366
104.9500 51.6712
104.9600 66.1709
104.9700 62.5049
104.9800 43.3258
104.9900 53.6701
105.0000 52.0620
105.0100 47.6420
105.0200 52.9940
105.0300 51.3052
105.0400 50.5290
105.0500 51.0924
105.0600 64.1633
105.0700 45.1310
105.0800 52.3146
105.0900 37.1463
105.1000 33.9031
105.1100 49.2848
105.1200 56.4118
105.1300 46.0846
105.1400 50.0479
105.1500 40.9359
105.1600 46.3418
105.1700 44.8369
105.1800 49.7196
105.1900 49.0935
105.2000 47.2775
105.2100 53.3524
105.2200 52.4047
105.2300 55.3377
105.2400 42.1605
105.2500 52.4009
105.2600 62.5763
105.2700 54.1896
105.2800 49.5710
105.2900 63.4055
105.3000 53.1113
105.3100 60.4265
105.3200 57.2855
105.3300 47.3441
105.3400 52.9583
105.3500 70.3139
105.3600 51.0581
105.3700 43.8132
105.3800 48.5478
105.3900 46.2889
105.4000 47.4323
105.4100 56.8209
105.4200 47.9453
105.4300 44.3593
105.4400 43.4432
105.4500 52.8643
105.4600 45.5148
105.4700 57.1825
105.4800 42.4770
105.4900 47.0158
105.5000 49.3926
105.5100 55.8921
105.5200 46.1126
105.5300 47.3579
105.5400 45.3867
105.5500 47.2613
105.5600 57.4551
105.5700 46.0811
105.5800 57.4367
105.5900 50.1643
105.6000 45.9833
105.6100 59.8923
105.6200 48.6535
105.6300 62.6990
105.6400 51.8272
105.6500 52.4726
105.6600 43.0326
105.6700 40.5092
105.6800 48.0244
105.6900 39.2930
105.7000 51.8547
105.7100 47.8213
105.7200 54.5571
105.7300 47.8023
105.7400 52.1737
105.7500 54.1874
105.7600 43.1846
105.7700 52.6864
105.7800 70.6335
105.7900 48.5644
105.8000 41.5407
105.8100 54.7959
105.8200 52.1342
105.8300 53.0687
105.8400 48.8045
105.8500 47.6865
105.8600 46.2589
105.8700 59.2949
105.8800 56.4489
105.8900 50.3208
105.9000 41.9971
105.9100 47.4229
105.9200 55.5556
105.9300 48.0689
105.9400 55.0510
105.9500 46.6046
105.9600 45.7233
105.9700 47.5705
105.9800 50.2985
105.9900 50.1739
106.0000 43.6284
106.0100 47.2503
106.0200 49.8582
106.0300 50.5503
106.0400 51.8368
106.0500 47.9338
106.0600 51.2430
106.0700 53.9989
106.0800 52.2820
106.0900 57.5360
106.1000 50.0026
106.1100 51.2473
106.1200 47.6494
106.1300 53.4772
106.1400 62.0522
106.1500 51.4033
106.1600 50.3092
106.1700 49.9114
106.1800 53.2436
106.1900 46.7086
106.2000 59.4362
106.2100 47.1002
106.2200 47.6529
106.2300 60.3997
106.2400 55.6378
106.2500 51.0553
106.2600 52.4855
106.2700 57.5144
106.2800 47.7341
106.2900 47.6549
106.3000 61.8792
106.3100 59.5162
106.3200 54.5891
106.3300 46.5571
106.3400 44.8713
106.3500 42.2262
106.3600 64.9581
106.3700 62.3887
106.3800 60.0311
106.3900 41.7068
106.4000 35.0660
106.4100 45.8187
106.4200 58.2340
106.4300 52.9607
106.4400 44.3495
106.4500 55.4904
106.4600 47.7320
106.4700 49.5509
106.4800 52.2402
106.4900 63.7461
106.5000 40.6281
106.5100 57.5352
106.5200 58.4853
106.5300 54.1376
106.5400 52.3259
106.5500 58.1307
106.5600 50.4874
106.5700 49.5908
106.5800 60.6845
106.5900 54.8336
106.6000 57.2322
106.6100 44.4510
106.6200 47.5872
106.6300 52.8933
106.6400 66.0908
106.6500 48.3369
106.6600 59.9385
106.6700 47.8352
106.6800 64.1027
106.6900 41.7270
106.7000 54.0563
106.7100 48.0980
106.7200 54.4428
106.7300 47.3841
106.7400 38.9350
106.7500 52.7403
106.7600 43.8766
106.7700 48.6120
106.7800 40.4067
106.7900 52.7295
106.8000 60.0950
106.8100 54.6191
106.8200 50.0621
106.8300 36.9068
106.8400 46.2040
106.8500 63.1916
106.8600 52.0359
106.8700 36.4217
106.8800 42.8926
106.8900 54.4081
106.9000 37.1511
106.9100 48.3946
106.9200 41.5759
106.9300 46.1156
106.9400 40.0118
106.9500 48.5021
106.9600 48.8954
106.9700 48.7548
106.9800 52.1666
106.9900 54.2038
107.0000 51.1774
107.0100 64.4603
107.0200 56.3045
107.0300 52.4501
107.0400 50.1983
107.0500 51.6455
107.0600 52.2891
107.0700 51.8551
107.0800 49.7938
107.0900 51.5887
107.1000 55.0756
107.1100 48.3347
107.1200 47.2592
107.1300 47.0841
107.1400 55.2321
107.1500 37.9149
107.1600 43.8293
107.1700 53.5636
107.1800 43.0764
107.1900 44.4259
107.2000 47.8162
107.2100 43.0853
107.2200 46.7062
107.2300 43.2998
107.2400 52.5618
107.2500 46.1253
107.2600 55.9620
107.2700 54.9779
107.2800 63.2301
107.2900 44.8631
107.3000 50.7715
107.3100 53.5556
107.3200 61.8960
107.3300 66.4024
107.3400 53.2393
107.3500 66.1660
107.3600 59.0914
107.3700 45.9221
107.3800 39.7476
107.3900 44.0897
107.4000 44.0156
107.4100 51.3749
107.4200 47.6760
107.4300 55.4788
107.4400 52.7229
107.4500 47.5876
107.4600 44.8380
107.4700 38.4843
107.4800 45.1037
107.4900 53.7210
107.5000 55.7071
107.5100 51.9153
107.5200 46.1334
107.5300 45.0286
107.5400 50.4775
107.5500 53.7584
107.5600 44.8761
107.5700 43.6977
107.5800 47.6554
107.5900 43.7741
107.6000 43.3091
107.6100 48.4103
107.6200 51.8499
107.6300 61.4096
107.6400 56.8115
107.6500 48.6838
107.6600 54.4242
107.6700 53.5683
107.6800 58.4640
107.6900 50.0807
107.7000 49.6199
107.7100 52.0350
107.7200 55.0860
107.7300 44.2543
107.7400 44.0382
107.7500 51.6068
107.7600 42.2848
107.7700 52.5799
107.7800 53.5486
107.7900 42.8559
107.8000 39.9388
107.8100 53.1991
107.8200 47.3950
107.8300 62.2806
107.8400 53.1608
107.8500 51.7909
107.8600 39.6992
107.8700 43.0115
107.8800 57.0354
107.8900 41.5885
107.9000 38.2319
107.9100 40.1598
107.9200 43.3630
107.9300 43.1480
107.9400 53.3293
107.9500 44.2532
107.9600 48.6963
107.9700 45.5681
107.9800 52.5544
107.9900 53.7638
108.0000 55.7911
108.0100 50.6635
108.0200 56.1205
108.0300 51.1131
108.0400 37.5923
108.0500 42.8597
108.0600 45.3433
108.0700 60.0413
108.0800 44.8399
108.0900 46.0395
108.1000 56.7356
108.1100 54.2755
108.1200 44.3048
108.1300 44.9186
108.1400 49.6481
108.1500 60.8439
108.1600 47.2841
108.1700 54.8492
108.1800 51.5628
108.1900 47.3486
108.2000 51.6762
108.2100 43.5405
108.2200 58.9585
108.2300 57.0600
108.2400 50.2746
108.2500 43.6312
108.2600 59.3601
108.2700 38.5261
108.2800 46.0326
108.2900 42.5546
108.3000 39.6905
108.3100 42.7204
108.3200 49.3106
108.3300 55.0906
108.3400 42.7056
108.3500 46.3963
108.3600 49.5898
108.3700 56.1514
108.3800 50.2762
108.3900 40.4296
108.4000 48.5937
108.4100 56.4385
108.4200 41.5528
108.4300 58.6841
108.4400 60.6819
108.4500 53.9724
108.4600 48.0846
108.4700 48.5591
108.4800 58.3983
108.4900 43.6297
108.5000 47.7776
108.5100 55.7372
108.5200 50.8162
108.5300 60.1867
108.5400 49.9602
108.5500 46.6592
108.5600 47.4830
108.5700 51.2016
108.5800 44.1193
108.5900 58.5913
108.6000 50.9451
108.6100 49.0950
108.6200 54.5629
108.6300 51.8948
108.6400 44.3294
108.6500 48.6844
108.6600 57.1731
108.6700 57.2739
108.6800 48.1872
108.6900 51.3471
108.7000 53.5210
108.7100 56.1264
108.7200 49.7247
108.7300 35.8749
108.7400 46.8573
108.7500 51.3414
108.7600 49.4923
108.7700 45.3229
108.7800 59.1027
108.7900 47.1422
108.8000 52.1874
108.8100 50.5272
108.8200 53.1026
108.8300 48.4232
108.8400 45.9858
108.8500 56.9937
108.8600 46.9976
108.8700 48.7804
108.8800 56.5098
108.8900 51.0132
108.9000 50.1987
108.9100 47.3697
108.9200 50.0493
108.9300 49.3575
108.9400 49.4637
108.9500 59.9935
108.9600 53.0757
108.9700 46.0345
108.9800 51.3859
108.9900 52.2189
109.0000 49.8487
109.0100 40.8942
109.0200 45.4670
109.0300 50.8725
109.0400 52.2708
109.0500 49.8930
109.0600 58.8809
109.0700 49.6386
109.0800 56.2980
109.0900 42.6322
109.1000 46.8915
109.1100 54.3116
109.1200 59.4541
109.1300 44.1178
109.1400 42.0200
109.1500 42.5821
109.1600 49.5841
109.1700 44.3530
109.1800 41.3393
109.1900 45.6686
109.2000 53.0813
109.2100 59.7787
109.2200 59.7507
109.2300 56.2297
109.2400 45.5123
109.2500 41.6767
109.2600 52.3331
109.2700 54.3596
109.2800 37.1756
109.2900 52.3702
109.3000 50.5929
109.3100 48.2170
109.3200 43.9678
109.3300 54.5842
109.3400 67.1931
109.3500 53.9081
109.3600 52.5181
109.3700 46.3470
109.3800 49.6628
109.3900 41.6386
109.4000 53.2487
109.4100 62.7691
109.4200 53.3240
109.4300 43.7594
109.4400 61.4240
109.4500 60.8664
109.4600 50.0022
109.4700 35.4782
109.4800 40.2065
109.4900 52.8287
109.5000 44.5148
109.5100 55.9800
109.5200 56.3136
109.5300 50.6886
109.5400 52.2578
109.5500 52.0386
109.5600 38.4461
109.5700 54.4366
109.5800 49.8719
109.5900 46.0156
109.6000 39.8381
109.6100 50.8274
109.6200 52.9808
109.6300 49.0633
109.6400 52.2930
109.6500 40.2654
109.6600 57.7568
109.6700 46.9099
109.6800 37.1813
109.6900 53.3220
109.7000 45.7479
109.7100 48.4990
109.7200 44.8008
109.7300 43.3474
109.7400 42.3482
109.7500 41.7476
109.7600 42.2909
109.7700 70.1747
109.7800 53.3871
109.7900 46.2486
109.8000 51.9023
109.8100 53.5714
109.8200 46.3322
109.8300 61.5249
109.8400 54.0214
109.8500 48.8325
109.8600 46.2251
109.8700 54.7064
109.8800 57.6440
109.8900 52.0176
109.9000 52.6708
109.9100 50.9155
109.9200 53.7939
109.9300 44.4577
109.9400 51.0695
109.9500 46.8198
109.9600 46.4017
109.9700 67.3746
109.9800 44.2100
109.9900 54.2263
110.0000 55.5503
110.0100 48.3717
110.0200 38.9472
110.0300 43.7363
110.0400 57.3349
110.0500 50.8563
110.0600 51.2964
110.0700 45.9216
110.0800 54.6715
110.0900 43.0889
110.1000 52.9410
110.1100 52.9380
110.1200 66.1787
110.1300 50.1297
110.1400 58.7383
110.1500 38.2601
110.1600 51.0330
110.1700 44.8621
110.1800 48.2941
110.1900 52.2382
110.2000 54.1140
110.2100 56.3223
110.2200 70.1939
110.2300 56.0763
110.2400 56.2435
110.2500 44.4833
110.2600 44.7294
110.2700 49.8576
110.2800 52.2538
110.2900 50.1145
110.3000 49.1331
110.3100 53.1850
110.3200 44.8391
110.3300 49.1357
110.3400 45.7823
110.3500 46.6654
110.3600 58.0836
110.3700 56.2619
110.3800 59.0215
110.3900 41.0712
110.4000 40.7144
110.4100 48.7167
110.4200 53.7433
110.4300 57.1020
110.4400 54.5200
110.4500 67.7623
110.4600 60.9646
110.4700 53.9830
110.4800 45.1180
110.4900 62.2283
110.5000 55.1215
110.5100 50.9624
110.5200 42.2815
110.5300 68.1125
110.5400 47.7349
110.5500 46.9753
110.5600 43.1112
110.5700 57.7678
110.5800 45.2055
110.5900 56.1289
110.6000 56.7026
110.6100 39.4000
110.6200 53.8144
110.6300 53.6674
110.6400 45.7435
110.6500 52.8855
110.6600 49.5941
110.6700 50.2109
110.6800 50.0687
110.6900 51.3198
110.7000 50.2337
110.7100 52.7063
110.7200 43.0425
110.7300 46.8881
110.7400 41.8281
110.7500 47.8422
110.7600 57.7105
110.7700 49.0565
110.7800 42.9399
110.7900 48.9196
110.8000 49.7782
110.8100 45.7038
110.8200 45.0464
110.8300 52.8433
110.8400 39.2366
110.8500 46.9607
110.8600 42.2461
110.8700 47.2306
110.8800 51.4885
110.8900 47.0018
110.9000 50.2318
110.9100 43.4082
110.9200 44.7302
110.9300 51.1546
110.9400 36.8573
110.9500 42.8281
110.9600 55.1611
110.9700 45.3742
110.9800 60.3936
110.9900 51.6983
111.0000 51.6813
111.0100 54.6536
111.0200 61.1492
111.0300 56.2134
111.0400 41.6443
111.0500 49.5890
111.0600 51.8341
111.0700 52.2307
111.0800 58.7630
111.0900 48.8140
111.1000 52.2326
111.1100 44.2457
111.1200 49.3784
111.1300 64.1183
111.1400 59.9755
111.1500 44.5260
111.1600 49.7504
111.1700 37.0069
111.1800 61.6521
111.1900 43.0394
111.2000 60.8418
111.2100 57.5233
111.2200 55.5718
111.2300 53.2893
111.2400 51.5904
111.2500 60.3422
111.2600 51.1723
111.2700 57.8093
111.2800 55.0158
111.2900 54.5466
111.3000 55.4951
111.3100 46.1623
111.3200 51.9595
111.3300 46.2198
111.3400 52.7629
111.3500 51.9084
111.3600 46.2564
111.3700 44.1628
111.3800 50.7887
111.3900 42.1733
111.4000 55.3352
111.4100 47.1488
111.4200 63.6093
111.4300 43.6955
111.4400 57.5096
111.4500 49.6080
111.4600 28.1784
111.4700 52.7118
111.4800 51.2289
111.4900 54.3110
111.5000 45.8014
111.5100 41.1541
111.5200 41.4392
111.5300 53.7259
111.5400 59.3061
111.5500 52.4368
111.5600 53.4820
111.5700 51.6948
111.5800 40.9862
111.5900 51.8026
111.6000 53.2967
111.6100 53.4097
111.6200 49.7144
111.6300 42.6858
111.6400 43.3261
111.6500 53.5888
111.6600 44.4193
111.6700 51.1458
111.6800 57.7914
111.6900 47.5526
111.7000 43.9671
111.7100 57.5719
111.7200 53.0966
111.7300 46.1474
111.7400 57.1290
111.7500 52.5991
111.7600 48.8194
111.7700 46.0752
111.7800 50.8956
111.7900 46.3025
111.8000 55.0885
111.8100 55.7936
111.8200 61.5582
111.8300 53.0023
111.8400 55.5131
111.8500 50.2442
111.8600 46.8394
111.8700 33.0179
111.8800 38.9709
111.8900 38.1147
111.9000 54.3057
111.9100 58.9695
111.9200 54.5079
111.9300 56.7524
111.9400 59.8345
111.9500 35.5216
111.9600 47.2530
111.9700 43.5690
111.9800 48.1129
111.9900 44.6895
112.0000 50.8456
112.0100 54.5826
112.0200 46.9951
112.0300 60.2769
112.0400 57.9096
112.0500 45.2453
112.0600 53.4235
112.0700 47.6860
112.0800 42.6034
112.0900 51.8329
112.1000 45.9803
112.1100 53.5349
112.1200 54.0636
112.1300 56.3184
112.1400 47.4286
112.1500 43.5996
112.1600 52.0131
112.1700 52.5703
112.1800 50.3394
112.1900 43.2658
112.2000 46.4447
112.2100 55.0756
112.2200 52.5390
112.2300 56.1174
112.2400 52.9266
112.2500 44.6531
112.2600 56.8587
112.2700 46.1796
112.2800 58.0238
112.2900 46.0324
112.3000 50.4780
112.3100 61.3032
112.3200 42.8136
112.3300 44.2179
112.3400 44.4749
112.3500 52.9268
112.3600 45.9380
112.3700 48.4168
112.3800 43.4126
112.3900 43.2490
112.4000 50.9544
112.4100 43.7472
112.4200 43.9025
112.4300 54.5602
112.4400 53.4364
112.4500 46.1694
112.4600 43.9808
112.4700 62.9677
112.4800 48.5401
112.4900 46.9950
112.5000 56.7120
112.5100 54.7711
112.5200 60.8035
112.5300 48.4195
112.5400 46.8950
112.5500 37.0806
112.5600 54.8344
112.5700 54.5284
112.5800 63.6673
112.5900 51.5384
112.6000 48.2462
112.6100 49.7907
112.6200 57.0057
112.6300 42.4153
112.6400 56.4067
112.6500 58.6581
112.6600 55.4037
112.6700 35.9519
112.6800 54.1641
112.6900 55.4220
112.7000 48.1520
112.7100 72.7762
112.7200 47.3640
112.7300 49.0383
112.7400 48.5409
112.7500 40.7539
112.7600 56.4112
112.7700 63.1332
112.7800 71.8535
112.7900 61.2563
112.8000 41.9646
112.8100 41.6407
112.8200 43.1470
112.8300 42.4959
112.8400 54.2468
112.8500 55.3994
112.8600 49.4264
112.8700 46.9218
112.8800 49.7425
112.8900 52.2220
112.9000 61.1731
112.9100 47.4697
112.9200 53.1141
112.9300 54.0455
112.9400 47.9496
112.9500 55.5848
112.9600 49.8604
112.9700 54.0707
112.9800 51.7857
112.9900 66.2518
113.0000 49.4174
113.0100 54.8143
113.0200 47.1601
113.0300 58.5413
113.0400 54.4492
113.0500 44.6285
113.0600 48.2347
113.0700 45.6660
113.0800 41.1303
113.0900 55.9390
113.1000 52.6404
113.1100 65.7883
113.1200 48.4383
113.1300 44.9655
113.1400 56.8667
113.1500 46.5964
113.1600 51.0693
113.1700 48.7598
113.1800 38.0915
113.1900 51.2734
113.2000 52.4199
113.2100 46.4372
113.2200 56.4577
113.2300 53.5352
113.2400 46.4712
113.2500 58.4113
113.2600 68.4067
113.2700 52.9546
113.2800 64.2771
113.2900 58.6359
113.3000 54.2270
113.3100 52.7542
113.3200 58.5360
113.3300 45.9952
113.3400 50.9909
113.3500 46.7361
113.3600 54.7623
113.3700 55.6892
113.3800 44.2839
113.3900 44.5784
113.4000 46.2393
113.4100 44.6602
113.4200 39.5626
113.4300 47.3362
113.4400 49.1740
113.4500 56.4313
113.4600 54.7469
113.4700 71.5831
113.4800 53.2099
113.4900 51.8127
113.5000 39.3456
113.5100 54.5871
113.5200 55.4999
113.5300 61.5814
113.5400 58.1741
113.5500 45.2806
113.5600 45.8277
113.5700 43.9710
113.5800 44.4919
113.5900 42.6413
113.6000 46.8341
113.6100 51.7039
113.6200 54.7827
113.6300 43.1935
113.6400 68.7454
113.6500 52.8409
113.6600 59.4450
113.6700 44.9190
113.6800 58.7175
113.6900 53.4767
113.7000 49.7920
113.7100 35.0707
113.7200 50.8181
113.7300 57.9982
113.7400 45.5127
113.7500 51.5668
113.7600 71.3307
113.7700 50.8580
113.7800 43.4102
113.7900 54.5575
113.8000 51.5608
113.8100 52.0206
113.8200 45.3700
113.8300 55.0367
113.8400 60.9889
113.8500 52.1461
113.8600 40.8547
113.8700 55.0581
113.8800 57.1181
113.8900 59.3962
113.9000 55.0846
113.9100 54.4499
113.9200 56.5516
113.9300 53.3512
113.9400 48.4343
113.9500 51.1026
113.9600 53.5765
113.9700 48.6659
113.9800 42.9661
113.9900 43.9980
114.0000 55.2822
114.0100 45.5933
114.0200 48.9457
114.0300 44.9067
114.0400 42.3071
114.0500 53.0097
114.0600 58.8870
114.0700 48.2130
114.0800 53.7016
114.0900 40.9463
114.1000 49.2953
114.1100 57.6648
114.1200 44.9344
114.1300 46.2010
114.1400 53.5384
114.1500 64.2096
114.1600 52.2379
114.1700 49.6632
114.1800 51.6624
114.1900 62.6168
114.2000 52.2456
114.2100 54.5084
114.2200 54.4428
114.2300 55.0803
114.2400 55.8952
114.2500 47.6909
114.2600 40.1801
114.2700 46.1752
114.2800 43.4350
114.2900 45.9638
114.3000 62.3702
114.3100 48.1043
114.3200 50.0787
114.3300 50.2450
114.3400 49.1865
114.3500 50.1252
114.3600 53.3004
114.3700 42.1015
114.3800 46.8067
114.3900 59.9307
114.4000 61.1900
114.4100 63.5592
114.4200 47.6321
114.4300 49.6571
114.4400 48.8687
114.4500 41.1513
114.4600 48.0478
114.4700 46.7862
114.4800 52.8071
114.4900 52.4232
114.5000 53.5373
114.5100 63.0783
114.5200 53.4397
114.5300 46.6138
114.5400 64.4951
114.5500 59.3616
114.5600 57.0076
114.5700 58.7497
114.5800 60.0446
114.5900 60.6076
114.6000 51.8382
114.6100 53.9659
114.6200 54.7865
114.6300 47.3749
114.6400 58.2854
114.6500 53.6609
114.6600 56.0698
114.6700 44.6391
114.6800 40.8203
114.6900 53.0097
114.7000 52.5172
114.7100 51.7936
114.7200 40.5562
114.7300 41.9055
114.7400 48.6293
114.7500 66.1803
114.7600 47.6779
114.7700 49.0535
114.7800 55.4819
114.7900 62.4230
114.8000 52.8005
114.8100 36.9658
114.8200 61.3024
114.8300 46.1700
114.8400 64.1229
114.8500 43.3702
114.8600 57.2434
114.8700 56.2012
114.8800 43.4194
114.8900 50.4106
114.9000 42.2997
114.9100 50.9149
114.9200 47.1799
114.9300 51.0562
114.9400 55.0868
114.9500 50.1454
114.9600 47.3156
114.9700 46.2218
114.9800 61.2546
114.9900 48.3059
115.0000 63.1872
115.0100 50.6708
115.0200 61.1888
115.0300 55.8943
115.0400 42.2821
115.0500 57.0471
115.0600 53.6643
115.0700 55.8298
115.0800 61.4127
115.0900 51.1978
115.1000 57.6492
115.1100 37.5642
115.1200 51.4857
115.1300 56.6418
115.1400 52.4971
115.1500 51.5415
115.1600 44.0033
115.1700 63.8095
115.1800 47.9259
115.1900 49.2386
115.2000 50.4247
115.2100 39.9793
115.2200 58.1289
115.2300 49.5077
115.2400 56.9955
115.2500 63.9024
115.2600 52.5060
115.2700 48.1518
115.2800 42.5209
115.2900 56.1939
115.3000 64.0462
115.3100 52.0211
115.3200 59.4576
115.3300 59.1558
115.3400 55.9932
115.3500 57.4588
115.3600 53.1708
115.3700 39.6154
115.3800 47.0822
115.3900 51.8413
115.4000 47.3611
115.4100 56.8149
115.4200 61.8748
115.4300 51.5182
115.4400 64.4819
115.4500 55.8162
115.4600 53.8587
115.4700 53.5410
115.4800 53.8376
115.4900 66.9094
115.5000 52.0572
115.5100 56.0468
115.5200 56.4851
115.5300 50.6105
115.5400 45.5538
115.5500 51.3321
115.5600 54.4453
115.5700 69.2715
115.5800 44.8877
115.5900 52.1647
115.6000 43.7728
115.6100 53.9768
115.6200 44.6075
115.6300 47.2641
115.6400 50.7234
115.6500 56.8831
115.6600 45.3272
115.6700 45.9655
115.6800 53.7225
115.6900 61.3558
115.7000 54.6662
115.7100 52.7034
115.7200 49.7148
115.7300 47.8150
115.7400 51.8336
115.7500 47.1647
115.7600 59.6237
115.7700 48.2069
115.7800 58.0651
115.7900 44.2945
115.8000 50.3125
115.8100 57.0157
115.8200 45.4546
115.8300 56.5583
115.8400 51.8406
115.8500 63.1202
115.8600 44.1932
115.8700 44.6571
115.8800 49.4492
115.8900 53.5097
115.9000 58.3524
115.9100 70.6415
115.9200 59.6134
115.9300 64.0456
115.9400 37.8461
115.9500 44.0760
115.9600 54.3796
115.9700 51.5406
115.9800 44.1489
115.9900 44.2942
116.0000 58.9087
116.0100 56.1107
116.0200 55.9774
116.0300 52.1919
116.0400 48.1986
116.0500 67.6364
116.0600 50.5788
116.0700 53.2140
116.0800 44.1901
116.0900 57.0648
116.1000 49.7849
116.1100 52.1909
116.1200 51.7781
116.1300 54.6078
116.1400 62.1064
116.1500 58.7254
116.1600 45.8980
116.1700 47.5116
116.1800 54.9530
116.1900 65.1471
116.2000 54.8378
116.2100 49.9896
116.2200 59.4132
116.2300 43.7602
116.2400 51.0788
116.2500 55.7243
116.2600 45.6415
116.2700 54.5861
116.2800 46.1732
116.2900 52.7547
116.3000 57.0273
116.3100 61.4848
116.3200 47.7190
116.3300 55.4513
116.3400 58.9650
116.3500 60.5530
116.3600 54.2609
116.3700 55.9372
116.3800 45.9842
116.3900 59.3363
116.4000 56.3813
116.4100 57.3339
116.4200 62.7184
116.4300 55.0967
116.4400 43.7666
116.4500 52.6434
116.4600 50.8144
116.4700 63.0018
116.4800 57.9616
116.4900 57.5226
116.5000 53.5668
116.5100 49.7957
116.5200 45.8297
116.5300 45.9452
116.5400 46.3991
116.5500 50.7560
116.5600 61.2112
116.5700 47.0766
116.5800 51.5810
116.5900 49.4001
116.6000 48.7305
116.6100 63.2913
116.6200 55.6481
116.6300 56.2915
116.6400 51.4900
116.6500 50.8479
116.6600 59.0448
116.6700 49.3987
116.6800 54.0019
116.6900 54.1740
116.7000 41.7246
116.7100 65.6023
116.7200 59.5206
116.7300 59.9923
116.7400 57.1654
116.7500 58.0714
116.7600 46.4374
116.7700 63.6867
116.7800 51.3410
116.7900 54.1622
116.8000 49.1465
116.8100 46.1583
116.8200 44.0429
116.8300 53.7795
116.8400 47.5978
116.8500 51.7601
116.8600 56.3956
116.8700 61.3996
116.8800 42.0369
116.8900 38.7318
116.9000 46.5264
116.9100 41.5884
116.9200 58.0140
116.9300 59.7430
116.9400 54.0742
116.9500 61.3865
116.9600 61.2457
116.9700 45.7185
116.9800 62.6390
116.9900 60.6692
117.0000 62.8809
117.0100 49.2794
117.0200 55.3862
117.0300 45.1535
117.0400 50.3528
117.0500 48.4788
117.0600 54.6031
117.0700 38.8901
117.0800 60.8548
117.0900 45.5780
117.1000 43.9813
117.1100 60.7703
117.1200 46.5487
117.1300 45.7899
117.1400 51.8051
117.1500 50.6207
117.1600 51.9187
117.1700 59.7773
117.1800 39.0259
117.1900 54.5474
117.2000 51.3908
117.2100 42.4625
117.2200 58.4678
117.2300 52.0705
117.2400 48.1157
117.2500 45.1600
117.2600 54.9831
117.2700 51.4794
117.2800 48.6284
117.2900 53.5968
117.3000 47.5683
117.3100 58.4930
117.3200 41.8178
117.3300 55.4589
117.3400 46.4321
117.3500 49.8354
117.3600 38.8017
117.3700 61.9818
117.3800 49.4108
117.3900 63.3126
117.4000 64.0162
117.4100 49.2527
117.4200 53.9414
117.4300 44.1670
117.4400 46.1213
117.4500 49.5654
117.4600 47.7346
117.4700 52.4332
117.4800 71.8476
117.4900 44.0407
117.5000 56.2022
117.5100 60.7466
117.5200 44.0215
117.5300 50.5315
117.5400 46.5069
117.5500 59.8272
117.5600 47.0055
117.5700 47.8667
117.5800 60.2207
117.5900 46.1889
117.6000 47.5849
117.6100 57.7508
117.6200 63.4982
117.6300 52.8833
117.6400 53.7343
117.6500 54.6562
117.6600 54.5047
117.6700 49.2305
117.6800 42.2739
117.6900 40.2880
117.7000 47.7117
117.7100 44.8288
117.7200 53.2675
117.7300 54.0543
117.7400 51.5106
117.7500 51.2068
117.7600 44.4022
117.7700 44.9311
117.7800 59.1140
117.7900 54.3881
117.8000 49.7651
117.8100 61.8938
117.8200 63.6185
117.8300 51.4897
117.8400 63.3007
117.8500 59.5556
117.8600 52.0618
117.8700 52.2171
117.8800 56.5730
117.8900 59.6811
117.9000 49.8390
117.9100 57.1456
117.9200 42.1916
117.9300 49.5423
117.9400 57.1006
117.9500 55.0854
117.9600 48.9063
117.9700 55.1473
117.9800 56.9722
117.9900 65.3377
118.0000 58.1997
118.0100 59.8054
118.0200 51.8332
118.0300 42.5225
118.0400 43.3003
118.0500 50.7691
118.0600 52.4443
118.0700 54.6594
118.0800 59.8065
118.0900 39.7956
118.1000 47.5727
118.1100 58.1275
118.1200 59.0866
118.1300 51.7129
118.1400 51.5764
118.1500 61.9238
118.1600 50.9577
118.1700 51.1513
118.1800 47.2578
118.1900 60.1414
118.2000 59.9800
118.2100 56.6347
118.2200 56.3299
118.2300 40.9441
118.2400 56.0414
118.2500 68.7012
118.2600 47.4640
118.2700 48.9232
118.2800 52.9219
118.2900 56.7954
118.3000 50.5081
118.3100 70.0252
118.3200 57.0419
118.3300 66.0706
118.3400 49.8176
118.3500 51.0965
118.3600 55.5805
118.3700 49.4519
118.3800 49.8955
118.3900 50.9027
118.4000 61.9244
118.4100 44.8839
118.4200 53.0677
118.4300 52.6657
118.4400 46.5456
118.4500 59.0778
118.4600 51.8956
118.4700 73.4958
118.4800 64.0295
118.4900 49.3384
118.5000 59.6143
118.5100 53.4095
118.5200 35.7736
118.5300 66.6870
118.5400 51.6487
118.5500 62.5342
118.5600 44.7835
118.5700 48.8793
118.5800 56.1093
118.5900 47.5197
118.6000 55.4850
118.6100 58.0610
118.6200 46.5840
118.6300 44.3205
118.6400 51.7948
118.6500 44.5949
118.6600 55.1779
118.6700 41.5988
118.6800 48.5733
118.6900 56.0443
118.7000 49.7246
118.7100 45.4304
118.7200 49.5527
118.7300 50.1685
118.7400 55.9921
118.7500 60.8006
118.7600 46.3811
118.7700 47.1498
118.7800 66.7065
118.7900 56.0281
118.8000 55.1763
118.8100 52.5067
118.8200 51.6363
118.8300 52.5355
118.8400 57.1400
118.8500 44.4938
118.8600 47.6471
118.8700 52.0939
118.8800 45.8418
118.8900 61.6979
118.9000 53.7083
118.9100 45.3637
118.9200 50.9644
118.9300 46.2638
118.9400 46.6183
118.9500 62.6644
118.9600 64.6764
118.9700 49.2925
118.9800 51.1009
118.9900 58.6609
119.0000 46.5530
119.0100 44.9975
119.0200 46.5519
119.0300 48.7877
119.0400 66.0242
119.0500 49.9251
119.0600 68.9403
119.0700 48.1555
119.0800 51.9464
119.0900 58.7083
119.1000 59.7935
119.1100 57.7456
119.1200 49.5130
119.1300 43.7588
119.1400 57.0413
119.1500 47.9817
119.1600 53.4323
119.1700 53.8341
119.1800 57.0662
119.1900 57.3118
119.2000 60.3994
119.2100 52.7450
119.2200 55.4492
119.2300 44.7760
119.2400 60.7409
119.2500 48.8309
119.2600 65.8891
119.2700 55.8606
119.2800 42.7164
119.2900 64.2794
119.3000 61.7120
119.3100 54.6805
119.3200 60.2471
119.3300 62.2201
119.3400 60.9889
119.3500 53.7024
119.3600 49.2121
119.3700 51.4103
119.3800 50.2543
119.3900 52.5745
119.4000 51.1532
119.4100 54.4964
119.4200 41.0579
119.4300 43.8131
119.4400 63.0921
119.4500 47.6315
119.4600 49.8656
119.4700 57.9494
119.4800 57.7238
119.4900 56.5499
119.5000 69.8688
119.5100 55.1784
119.5200 48.7031
119.5300 56.0169
119.5400 57.7454
119.5500 40.9495
119.5600 56.8263
119.5700 50.1587
119.5800 53.3430
119.5900 61.0222
119.6000 56.4500
119.6100 56.8524
119.6200 70.8027
119.6300 64.7230
119.6400 50.8703
119.6500 45.4390
119.6600 47.8290
119.6700 53.2364
119.6800 49.8692
119.6900 50.3448
119.7000 65.3090
119.7100 50.0753
119.7200 48.5163
119.7300 48.4526
119.7400 54.2797
119.7500 59.8174
119.7600 51.5564
119.7700 48.2100
119.7800 52.7505
119.7900 50.5629
119.8000 39.9814
119.8100 48.9276
119.8200 41.1355
119.8300 57.2705
119.8400 57.4051
119.8500 46.7276
119.8600 40.8132
119.8700 49.1531
119.8800 47.8051
119.8900 44.4583
119.9000 50.2034
119.9100 54.5652
119.9200 60.6776
119.9300 42.0166
119.9400 54.8639
119.9500 50.5781
119.9600 56.8266
119.9700 46.2978
119.9800 41.4743
119.9900 77.8990
