#Collected Data-64
#Intensity_unit=counts
#Attenuator_coefficient=1.000000
40.0000 41.9967
40.0500 46.0437
40.1000 49.2663
40.1500 45.9818
40.2000 43.1716
40.2500 33.5957
40.3000 34.8286
40.3500 43.1195
40.4000 47.8707
40.4500 31.5873
40.5000 32.3141
40.5500 41.1050
40.6000 29.4474
40.6500 34.6328
40.7000 41.8430
40.7500 42.5731
40.8000 43.9303
40.8500 45.4716
40.9000 40.2692
40.9500 48.4874
41.0000 48.7665
41.0500 39.6558
41.1000 45.2362
41.1500 31.1791
41.2000 34.6809
41.2500 40.6095
41.3000 34.1604
41.3500 40.6080
41.4000 38.0268
41.4500 48.0536
41.5000 30.9208
41.5500 30.3185
41.6000 31.2477
41.6500 29.9363
41.7000 29.6871
41.7500 38.5859
41.8000 26.8655
41.8500 42.7718
41.9000 40.9251
41.9500 48.4597
42.0000 30.1518
42.0500 34.5286
42.1000 32.8403
42.1500 43.2395
42.2000 31.6926
42.2500 30.8537
42.3000 39.4255
42.3500 33.4566
42.4000 34.5218
42.4500 44.4875
42.5000 33.4114
42.5500 35.2345
42.6000 42.1488
42.6500 30.7319
42.7000 37.2740
42.7500 42.9056
42.8000 34.2421
42.8500 39.6089
42.9000 33.2256
42.9500 40.0734
43.0000 43.9280
43.0500 44.0188
43.1000 38.2368
43.1500 31.3695
43.2000 42.6978
43.2500 38.9926
43.3000 42.0588
43.3500 35.6532
43.4000 37.8562
43.4500 29.9795
43.5000 28.5684
43.5500 38.7478
43.6000 28.7500
43.6500 42.8981
43.7000 42.0212
43.7500 32.8826
43.8000 37.0816
43.8500 38.7184
43.9000 49.7420
43.9500 47.2683
44.0000 43.2714
44.0500 50.0222
44.1000 49.8063
44.1500 62.9205
44.2000 60.8121
44.2500 77.6647
44.3000 124.5173
44.3500 185.4568
44.4000 433.5267
44.4500 1042.1411
44.5000 1818.5101
44.5500 2018.1041
44.6000 1423.3121
44.6500 703.3987
44.7000 257.5179
44.7500 128.9644
44.8000 75.5745
44.8500 62.0281
44.9000 57.1571
44.9500 53.1131
45.0000 33.5745
45.0500 52.8555
45.1000 52.3745
45.1500 41.4464
45.2000 39.1610
45.2500 37.2611
45.3000 40.1815
45.3500 41.5623
45.4000 44.1435
45.4500 32.5146
45.5000 44.4356
45.5500 29.6354
45.6000 34.1452
45.6500 43.1015
45.7000 33.1073
45.7500 32.4299
45.8000 35.0735
45.8500 29.5898
45.9000 23.4075
45.9500 28.1700
46.0000 28.8381
46.0500 36.0006
46.1000 37.5832
46.1500 38.9792
46.2000 34.7680
46.2500 39.6307
46.3000 33.9926
46.3500 35.8428
46.4000 34.0929
46.4500 33.5166
46.5000 32.5840
46.5500 40.7422
46.6000 29.9211
46.6500 35.4950
46.7000 42.3605
46.7500 38.2398
46.8000 38.2123
46.8500 29.6843
46.9000 44.0400
46.9500 32.3326
47.0000 32.7486
47.0500 43.0031
47.1000 38.0137
47.1500 43.1522
47.2000 36.7982
47.2500 28.1365
47.3000 32.5021
47.3500 25.5088
47.4000 36.8777
47.4500 30.2434
47.5000 30.8746
47.5500 35.5109
47.6000 32.9573
47.6500 46.1066
47.7000 31.6673
47.7500 46.3510
47.8000 25.3551
47.8500 29.8829
47.9000 43.0905
47.9500 40.1882
48.0000 42.5577
48.0500 38.2022
48.1000 35.6951
48.1500 33.4542
48.2000 33.5344
48.2500 38.1224
48.3000 33.7956
48.3500 36.0188
48.4000 21.6511
48.4500 45.3633
48.5000 41.6947
48.5500 25.0363
48.6000 26.9770
48.6500 38.8972
48.7000 30.1991
48.7500 27.5033
48.8000 28.4255
48.8500 46.4299
48.9000 32.9921
48.9500 40.5405
49.0000 48.7865
49.0500 44.6375
49.1000 28.8302
49.1500 29.7218
49.2000 33.2582
49.2500 34.9965
49.3000 41.8728
49.3500 37.7320
49.4000 41.3404
49.4500 23.4194
49.5000 28.6161
49.5500 38.2115
49.6000 36.1927
49.6500 30.9402
49.7000 34.1591
49.7500 39.5840
49.8000 32.0654
49.8500 46.6240
49.9000 32.9712
49.9500 27.3375
50.0000 30.0063
50.0500 34.3014
50.1000 32.4422
50.1500 31.3750
50.2000 33.9732
50.2500 39.0303
50.3000 49.4488
50.3500 39.1833
50.4000 32.2398
50.4500 38.9170
50.5000 29.2995
50.5500 40.5440
50.6000 30.5615
50.6500 30.1107
50.7000 33.8440
50.7500 37.5977
50.8000 36.2122
50.8500 31.9630
50.9000 35.3560
50.9500 34.4873
51.0000 28.6902
51.0500 26.9209
51.1000 33.1771
51.1500 41.3595
51.2000 29.4377
51.2500 33.7924
51.3000 30.2932
51.3500 45.9717
51.4000 26.8765
51.4500 29.2088
51.5000 34.9000
51.5500 29.3938
51.6000 39.2585
51.6500 24.4558
51.7000 26.4924
51.7500 28.0570
51.8000 42.0283
51.8500 27.7049
51.9000 27.8903
51.9500 29.1514
52.0000 42.8528
52.0500 30.1623
52.1000 33.1102
52.1500 43.5625
52.2000 38.1070
52.2500 37.2018
52.3000 45.0828
52.3500 45.8889
52.4000 41.5542
52.4500 29.7903
52.5000 32.1874
52.5500 29.8003
52.6000 43.2140
52.6500 32.7433
52.7000 31.7657
52.7500 21.1673
52.8000 32.8272
52.8500 22.0962
52.9000 22.4663
52.9500 35.2742
53.0000 32.0466
53.0500 46.3651
53.1000 41.0621
53.1500 34.6537
53.2000 34.9236
53.2500 28.0812
53.3000 25.9002
53.3500 37.3622
53.4000 26.7326
53.4500 34.8177
53.5000 35.5027
53.5500 45.6891
53.6000 40.2478
53.6500 27.2468
53.7000 29.1630
53.7500 31.2488
53.8000 40.0043
53.8500 30.3116
53.9000 37.8098
53.9500 32.1193
54.0000 33.6695
54.0500 29.1869
54.1000 30.3992
54.1500 35.8722
54.2000 37.2104
54.2500 29.8403
54.3000 25.0656
54.3500 33.2656
54.4000 30.3104
54.4500 40.5745
54.5000 27.2194
54.5500 28.3053
54.6000 26.8003
54.6500 26.3996
54.7000 31.3967
54.7500 30.5715
54.8000 35.8081
54.8500 25.7331
54.9000 31.1978
54.9500 29.3636
55.0000 38.2571
55.0500 42.4299
55.1000 32.8104
55.1500 31.5661
55.2000 27.6177
55.2500 34.7468
55.3000 33.0155
55.3500 27.3665
55.4000 38.9266
55.4500 26.4928
55.5000 28.4514
55.5500 23.1226
55.6000 42.0292
55.6500 31.8031
55.7000 30.8311
55.7500 36.4944
55.8000 31.6978
55.8500 33.8697
55.9000 36.0616
55.9500 35.3673
56.0000 33.9782
56.0500 32.7616
56.1000 35.2576
56.1500 27.5068
56.2000 34.8656
56.2500 27.7074
56.3000 33.3391
56.3500 31.5994
56.4000 31.2906
56.4500 31.1216
56.5000 27.5408
56.5500 30.0219
56.6000 25.2816
56.6500 25.7350
56.7000 27.8838
56.7500 33.6510
56.8000 33.9608
56.8500 25.4503
56.9000 29.4853
56.9500 24.6887
57.0000 28.6683
57.0500 24.7420
57.1000 30.3967
57.1500 30.1589
57.2000 35.1089
57.2500 32.6729
57.3000 34.8024
57.3500 21.8936
57.4000 21.5616
57.4500 29.4831
57.5000 26.1630
57.5500 39.0590
57.6000 23.1030
57.6500 27.7860
57.7000 23.9963
57.7500 20.7445
57.8000 28.9746
57.8500 38.3874
57.9000 38.6538
57.9500 19.9586
58.0000 32.2862
58.0500 32.7024
58.1000 37.3531
58.1500 30.6634
58.2000 37.4809
58.2500 25.2089
58.3000 33.7794
58.3500 38.1006
58.4000 31.9824
58.4500 27.3655
58.5000 26.6383
58.5500 36.5170
58.6000 31.1832
58.6500 30.4449
58.7000 35.7778
58.7500 22.8584
58.8000 34.6752
58.8500 31.6902
58.9000 23.9561
58.9500 24.2673
59.0000 44.6593
59.0500 19.7999
59.1000 36.2316
59.1500 42.1976
59.2000 34.9708
59.2500 32.1366
59.3000 34.2764
59.3500 33.4881
59.4000 24.7834
59.4500 31.3999
59.5000 29.1073
59.5500 28.2913
59.6000 30.9696
59.6500 33.2912
59.7000 30.1530
59.7500 24.1098
59.8000 32.0775
59.8500 34.7874
59.9000 28.5797
59.9500 18.3575
60.0000 26.2652
60.0500 25.9287
60.1000 24.1205
60.1500 33.6695
60.2000 34.1073
60.2500 28.1270
60.3000 30.0147
60.3500 28.0712
60.4000 26.7292
60.4500 20.8665
60.5000 31.7983
60.5500 27.5482
60.6000 26.2024
60.6500 30.0529
60.7000 28.1024
60.7500 22.4402
60.8000 41.5869
60.8500 24.2546
60.9000 31.2915
60.9500 26.9329
61.0000 28.7640
61.0500 38.9576
61.1000 38.2018
61.1500 35.7831
61.2000 31.6122
61.2500 25.7159
61.3000 26.1724
61.3500 23.4362
61.4000 26.0315
61.4500 16.5738
61.5000 15.8440
61.5500 24.4427
61.6000 25.9024
61.6500 37.9403
61.7000 30.4139
61.7500 30.6555
61.8000 31.3077
61.8500 29.9395
61.9000 27.3948
61.9500 34.8916
62.0000 33.5018
62.0500 28.9630
62.1000 29.1342
62.1500 30.9785
62.2000 27.8915
62.2500 25.3988
62.3000 29.8035
62.3500 32.9285
62.4000 26.7797
62.4500 36.0109
62.5000 41.0691
62.5500 35.1337
62.6000 35.2859
62.6500 35.0748
62.7000 34.4575
62.7500 39.7063
62.8000 25.0593
62.8500 23.5581
62.9000 26.3030
62.9500 42.2466
63.0000 35.0709
63.0500 30.2392
63.1000 28.1563
63.1500 32.3429
63.2000 30.5540
63.2500 36.4847
63.3000 35.8404
63.3500 47.6995
63.4000 35.5772
63.4500 36.7843
63.5000 24.7576
63.5500 37.0761
63.6000 33.0170
63.6500 33.4866
63.7000 33.9289
63.7500 24.0331
63.8000 26.0071
63.8500 31.8084
63.9000 29.0761
63.9500 35.8962
64.0000 27.5457
64.0500 32.0445
64.1000 23.8315
64.1500 37.4095
64.2000 23.6453
64.2500 37.2693
64.3000 33.4675
64.3500 35.5832
64.4000 34.8886
64.4500 40.2575
64.5000 47.4257
64.5500 48.5207
64.6000 57.6505
64.6500 95.5274
64.7000 116.7541
64.7500 135.4983
64.8000 151.8189
64.8500 162.0255
64.9000 131.4075
64.9500 76.3823
65.0000 44.7927
65.0500 34.1294
65.1000 33.5128
65.1500 40.3536
65.2000 34.0824
65.2500 36.3738
65.3000 31.1244
65.3500 35.0042
65.4000 30.6307
65.4500 29.1373
65.5000 26.1349
65.5500 30.4690
65.6000 36.1457
65.6500 37.2199
65.7000 23.4212
65.7500 30.3360
65.8000 35.2874
65.8500 19.3503
65.9000 29.0185
65.9500 33.6152
66.0000 35.2349
66.0500 28.3246
66.1000 28.2633
66.1500 39.4580
66.2000 44.7547
66.2500 34.8148
66.3000 33.0094
66.3500 28.6795
66.4000 33.7014
66.4500 25.6256
66.5000 26.6043
66.5500 27.2568
66.6000 26.7536
66.6500 33.5201
66.7000 39.2122
66.7500 30.2842
66.8000 34.2110
66.8500 34.9666
66.9000 29.9420
66.9500 33.2185
67.0000 20.2230
67.0500 36.5884
67.1000 33.4473
67.1500 42.6123
67.2000 32.9205
67.2500 27.7167
67.3000 29.6020
67.3500 19.9025
67.4000 23.6777
67.4500 21.4403
67.5000 31.2142
67.5500 28.1994
67.6000 29.4030
67.6500 25.8804
67.7000 25.6608
67.7500 21.6659
67.8000 30.9331
67.8500 19.2263
67.9000 26.9269
67.9500 36.2587
68.0000 31.5627
68.0500 28.0349
68.1000 37.2026
68.1500 30.5859
68.2000 27.3128
68.2500 34.0781
68.3000 38.5346
68.3500 32.3814
68.4000 28.2732
68.4500 37.3720
68.5000 42.6421
68.5500 36.0894
68.6000 32.2550
68.6500 26.3307
68.7000 28.0554
68.7500 33.1548
68.8000 28.1899
68.8500 19.3910
68.9000 37.4404
68.9500 29.1746
69.0000 28.2295
69.0500 33.2156
69.1000 26.2623
69.1500 26.9153
69.2000 37.8128
69.2500 39.6567
69.3000 33.0859
69.3500 33.6759
69.4000 31.7039
69.4500 37.9465
69.5000 33.1401
69.5500 36.3385
69.6000 27.4753
69.6500 29.6262
69.7000 32.6104
69.7500 30.8823
69.8000 35.3783
69.8500 27.7869
69.9000 34.8208
69.9500 43.4806
70.0000 33.8408
70.0500 21.2486
70.1000 20.7406
70.1500 33.2701
70.2000 28.6163
70.2500 33.2846
70.3000 33.1471
70.3500 50.9541
70.4000 42.3060
70.4500 26.6438
70.5000 33.1682
70.5500 25.6805
70.6000 32.5988
70.6500 39.8447
70.7000 35.0604
70.7500 32.6527
70.8000 33.2725
70.8500 32.8864
70.9000 29.9171
70.9500 29.7245
71.0000 30.7406
71.0500 38.9085
71.1000 28.2098
71.1500 21.4616
71.2000 34.6295
71.2500 25.2328
71.3000 31.0184
71.3500 29.1729
71.4000 32.8186
71.4500 30.4466
71.5000 44.1365
71.5500 28.4373
71.6000 37.4974
71.6500 30.4521
71.7000 26.0112
71.7500 31.2465
71.8000 21.7720
71.8500 27.0403
71.9000 44.2769
71.9500 31.7534
72.0000 34.3420
72.0500 42.3200
72.1000 24.7326
72.1500 28.0089
72.2000 26.2641
72.2500 33.2487
72.3000 25.5786
72.3500 41.5848
72.4000 29.6985
72.4500 20.2872
72.5000 24.9940
72.5500 26.5351
72.6000 28.5742
72.6500 30.9243
72.7000 18.6088
72.7500 23.4773
72.8000 47.7898
72.8500 19.4227
72.9000 34.6041
72.9500 28.9438
73.0000 32.9331
73.0500 19.8612
73.1000 29.5904
73.1500 28.8103
73.2000 32.2273
73.2500 26.6800
73.3000 29.9538
73.3500 30.0297
73.4000 29.8625
73.4500 35.4566
73.5000 30.9394
73.5500 32.5128
73.6000 26.8771
73.6500 29.4848
73.7000 35.0016
73.7500 26.0844
73.8000 29.0889
73.8500 32.2528
73.9000 30.9043
73.9500 38.4515
74.0000 25.3531
74.0500 30.4989
74.1000 41.7314
74.1500 25.8554
74.2000 26.7821
74.2500 23.6673
74.3000 23.7648
74.3500 24.6412
74.4000 25.8159
74.4500 21.7884
74.5000 30.2076
74.5500 38.2328
74.6000 34.3976
74.6500 31.9075
74.7000 24.9669
74.7500 31.6308
74.8000 29.2054
74.8500 38.5580
74.9000 17.7249
74.9500 31.7581
75.0000 25.5512
75.0500 29.3539
75.1000 23.3978
75.1500 30.3563
75.2000 21.9661
75.2500 39.1365
75.3000 33.9876
75.3500 36.0749
75.4000 34.8257
75.4500 29.1044
75.5000 29.9608
75.5500 29.1257
75.6000 39.8147
75.6500 31.6462
75.7000 39.1302
75.7500 37.9311
75.8000 30.6545
75.8500 29.5048
75.9000 28.0903
75.9500 29.9628
76.0000 22.4174
76.0500 25.5096
76.1000 30.1677
76.1500 36.5214
76.2000 30.4042
76.2500 29.1305
76.3000 28.7352
76.3500 32.3456
76.4000 36.9224
76.4500 31.9080
76.5000 27.0566
76.5500 39.6575
76.6000 24.3173
76.6500 19.4423
76.7000 37.4721
76.7500 22.1709
76.8000 33.3398
76.8500 29.7992
76.9000 37.1524
76.9500 37.3218
77.0000 26.3221
77.0500 28.1477
77.1000 22.8581
77.1500 22.5351
77.2000 26.4085
77.2500 31.1566
77.3000 24.0157
77.3500 25.9901
77.4000 27.6802
77.4500 33.9811
77.5000 41.7950
77.5500 33.2255
77.6000 25.9533
77.6500 35.4682
77.7000 32.2627
77.7500 29.2918
77.8000 28.6154
77.8500 33.9386
77.9000 20.8878
77.9500 43.3149
78.0000 34.1941
78.0500 31.5514
78.1000 32.0442
78.1500 31.9439
78.2000 20.4220
78.2500 28.9789
78.3000 29.3741
78.3500 27.0287
78.4000 40.0126
78.4500 33.0870
78.5000 38.5593
78.5500 40.0783
78.6000 37.7043
78.6500 24.6047
78.7000 23.1933
78.7500 37.6628
78.8000 32.5857
78.8500 32.0190
78.9000 29.3990
78.9500 19.8187
79.0000 27.5891
79.0500 32.7248
79.1000 25.6241
79.1500 30.1361
79.2000 36.1050
79.2500 36.7653
79.3000 30.1669
79.3500 23.7277
79.4000 26.8042
79.4500 27.5215
79.5000 34.7676
79.5500 36.7086
79.6000 27.7349
79.6500 26.0596
79.7000 31.1912
79.7500 30.9589
79.8000 28.7743
79.8500 26.8319
79.9000 33.1809
79.9500 22.7873
80.0000 37.0830
80.0500 28.7396
80.1000 39.0366
80.1500 26.4951
80.2000 28.8596
80.2500 26.2762
80.3000 28.0643
80.3500 32.2357
80.4000 36.8058
80.4500 27.4620
80.5000 24.2443
80.5500 27.4227
80.6000 27.7490
80.6500 39.9335
80.7000 33.8232
80.7500 26.9682
80.8000 31.5168
80.8500 24.8503
80.9000 34.1692
80.9500 28.0501
81.0000 50.4846
81.0500 23.7895
81.1000 38.4192
81.1500 35.1906
81.2000 35.4195
81.2500 33.1701
81.3000 26.6008
81.3500 34.7205
81.4000 35.2744
81.4500 34.5246
81.5000 36.4875
81.5500 36.0551
81.6000 25.6724
81.6500 42.3437
81.7000 44.5700
81.7500 39.2789
81.8000 62.1786
81.8500 57.7211
81.9000 78.5549
81.9500 114.0791
82.0000 124.6521
82.0500 169.9446
82.1000 147.5376
82.1500 147.1545
82.2000 97.3064
82.2500 73.3442
82.3000 46.1043
82.3500 59.7317
82.4000 38.9003
82.4500 35.1828
82.5000 37.9796
82.5500 36.8197
82.6000 39.8479
82.6500 42.2524
82.7000 41.4432
82.7500 33.8239
82.8000 19.7732
82.8500 23.9197
82.9000 27.4331
82.9500 21.6256
83.0000 41.8890
83.0500 28.2258
83.1000 25.8450
83.1500 23.9766
83.2000 26.2152
83.2500 31.0254
83.3000 33.5435
83.3500 39.8944
83.4000 26.2642
83.4500 44.3046
83.5000 29.5001
83.5500 28.9747
83.6000 31.9446
83.6500 30.7381
83.7000 28.3072
83.7500 24.7191
83.8000 28.5512
83.8500 31.4662
83.9000 31.3361
83.9500 31.2573
84.0000 32.6827
84.0500 34.8352
84.1000 32.6376
84.1500 31.9931
84.2000 30.7033
84.2500 20.8498
84.3000 28.9168
84.3500 29.9062
84.4000 36.2494
84.4500 31.1373
84.5000 30.0448
84.5500 14.9335
84.6000 37.1209
84.6500 42.5951
84.7000 32.3439
84.7500 28.7155
84.8000 25.9192
84.8500 34.3633
84.9000 24.5593
84.9500 30.6190
85.0000 28.4869
85.0500 26.3821
85.1000 33.9761
85.1500 26.0408
85.2000 28.9682
85.2500 30.7501
85.3000 22.3877
85.3500 27.6096
85.4000 23.8191
85.4500 34.1735
85.5000 28.8113
85.5500 29.4347
85.6000 30.2852
85.6500 38.6949
85.7000 21.8188
85.7500 38.7158
85.8000 25.2876
85.8500 31.4111
85.9000 31.2533
85.9500 28.0606
86.0000 28.7874
86.0500 37.0491
86.1000 34.6628
86.1500 27.2075
86.2000 44.5722
86.2500 32.8367
86.3000 45.7242
86.3500 33.8721
86.4000 30.4911
86.4500 28.6794
86.5000 35.4321
86.5500 41.6278
86.6000 39.9970
86.6500 27.0666
86.7000 29.2839
86.7500 33.1874
86.8000 30.6503
86.8500 28.5772
86.9000 33.0636
86.9500 31.4998
87.0000 25.9673
87.0500 25.1237
87.1000 26.1876
87.1500 25.0495
87.2000 33.3092
87.2500 41.7723
87.3000 26.4552
87.3500 24.5738
87.4000 30.7812
87.4500 25.7742
87.5000 31.4115
87.5500 36.9334
87.6000 30.1392
87.6500 23.4528
87.7000 36.6486
87.7500 38.0533
87.8000 28.6105
87.8500 34.0686
87.9000 22.1808
87.9500 30.4043
88.0000 16.7119
88.0500 27.8011
88.1000 27.2635
88.1500 34.6713
88.2000 27.3543
88.2500 33.0207
88.3000 20.4432
88.3500 26.0683
88.4000 35.9046
88.4500 31.8207
88.5000 30.6953
88.5500 41.3545
88.6000 34.5765
88.6500 28.4340
88.7000 27.7376
88.7500 18.9205
88.8000 39.2449
88.8500 28.4751
88.9000 30.0335
88.9500 41.7726
89.0000 28.3373
89.0500 22.1887
89.1000 32.0562
89.1500 34.5193
89.2000 26.1486
89.2500 41.7439
89.3000 34.6331
89.3500 23.8227
89.4000 32.7427
89.4500 28.6344
89.5000 36.4208
89.5500 27.5202
89.6000 29.7890
89.6500 26.3620
89.7000 35.5606
89.7500 32.2446
89.8000 38.2739
89.8500 31.1847
89.9000 22.6991
89.9500 31.6289
90.0000 35.8612
90.0500 24.8827
90.1000 33.8595
90.1500 27.1518
90.2000 34.7583
90.2500 28.1916
90.3000 26.0499
90.3500 29.8433
90.4000 33.7377
90.4500 30.1486
90.5000 36.7175
90.5500 28.6064
90.6000 32.8632
90.6500 23.2323
90.7000 28.5344
90.7500 28.2239
90.8000 29.7841
90.8500 28.3419
90.9000 28.5929
90.9500 37.1647
91.0000 31.6007
91.0500 39.0223
91.1000 31.6538
91.1500 33.0085
91.2000 28.8455
91.2500 22.2151
91.3000 28.3943
91.3500 34.1886
91.4000 39.1976
91.4500 22.5609
91.5000 32.5272
91.5500 34.2597
91.6000 22.8535
91.6500 30.3774
91.7000 26.5207
91.7500 43.7667
91.8000 29.6682
91.8500 30.9182
91.9000 32.7656
91.9500 27.5126
92.0000 32.5463
92.0500 32.6812
92.1000 26.2918
92.1500 28.1922
92.2000 35.8987
92.2500 20.3007
92.3000 26.6074
92.3500 26.4324
92.4000 39.5019
92.4500 27.5769
92.5000 30.2008
92.5500 34.2383
92.6000 31.8886
92.6500 27.4815
92.7000 27.8880
92.7500 26.2513
92.8000 31.4736
92.8500 37.6137
92.9000 34.4379
92.9500 32.7709
93.0000 30.1865
93.0500 23.9189
93.1000 33.6996
93.1500 37.9655
93.2000 42.6614
93.2500 39.4185
93.3000 27.3903
93.3500 25.0494
93.4000 25.1828
93.4500 19.7010
93.5000 29.0752
93.5500 31.5524
93.6000 31.7736
93.6500 31.6143
93.7000 24.7290
93.7500 21.0319
93.8000 26.4571
93.8500 35.0293
93.9000 20.9766
93.9500 24.8755
94.0000 26.1137
94.0500 33.9816
94.1000 32.0291
94.1500 33.8724
94.2000 26.7073
94.2500 28.1140
94.3000 26.0887
94.3500 24.8604
94.4000 29.2071
94.4500 35.4169
94.5000 30.2186
94.5500 26.9883
94.6000 29.9792
94.6500 33.1230
94.7000 41.3862
94.7500 30.1526
94.8000 34.0026
94.8500 25.5602
94.9000 30.2888
94.9500 35.8106
95.0000 19.6322
95.0500 33.9159
95.1000 32.4933
95.1500 27.2688
95.2000 30.5750
95.2500 34.7785
95.3000 27.0752
95.3500 30.3344
95.4000 22.4953
95.4500 26.4133
95.5000 30.1470
95.5500 35.1038
95.6000 25.1197
95.6500 27.8440
95.7000 26.6342
95.7500 37.0833
95.8000 28.0162
95.8500 27.3513
95.9000 29.7696
95.9500 28.1007
96.0000 21.8492
96.0500 29.4805
96.1000 29.9630
96.1500 28.7796
96.2000 31.8141
96.2500 35.9749
96.3000 25.6426
96.3500 32.5950
96.4000 35.2997
96.4500 29.7052
96.5000 26.4410
96.5500 29.3807
96.6000 30.3975
96.6500 32.5314
96.7000 33.6902
96.7500 29.5423
96.8000 31.3872
96.8500 36.7588
96.9000 36.1621
96.9500 24.5529
97.0000 23.5522
97.0500 25.6925
97.1000 28.4283
97.1500 26.2225
97.2000 24.0405
97.2500 26.4778
97.3000 43.6761
97.3500 31.0043
97.4000 33.2624
97.4500 43.6186
97.5000 34.0193
97.5500 23.2085
97.6000 28.5632
97.6500 33.6397
97.7000 30.1637
97.7500 29.1221
97.8000 32.8529
97.8500 28.5306
97.9000 33.2588
97.9500 30.4872
98.0000 40.3285
98.0500 30.0537
98.1000 25.8552
98.1500 36.9971
98.2000 35.5900
98.2500 42.9553
98.3000 44.9497
98.3500 54.7200
98.4000 60.6653
98.4500 92.8855
98.5000 123.2705
98.5500 151.5993
98.6000 159.2674
98.6500 148.3511
98.7000 139.3661
98.7500 93.7197
98.8000 80.0063
98.8500 54.0247
98.9000 49.8822
98.9500 40.6816
99.0000 36.9476
99.0500 27.5060
99.1000 37.7284
99.1500 40.9240
99.2000 28.9801
99.2500 28.0065
99.3000 38.9170
99.3500 43.0926
99.4000 30.1909
99.4500 38.3919
99.5000 30.6104
99.5500 27.9538
99.6000 21.1637
99.6500 29.3567
99.7000 25.9669
99.7500 27.6738
99.8000 27.0216
99.8500 33.0548
99.9000 33.0195
99.9500 21.6953
100.0000 41.5875
100.0500 26.6199
100.1000 20.0682
100.1500 32.5874
100.2000 31.1618
100.2500 27.5371
100.3000 25.3522
100.3500 32.2199
100.4000 29.3856
100.4500 25.0086
100.5000 28.5052
100.5500 24.9102
100.6000 28.0816
100.6500 25.8351
100.7000 34.0651
100.7500 32.5704
100.8000 27.3839
100.8500 36.0227
100.9000 30.1624
100.9500 33.4843
101.0000 26.3809
101.0500 28.0867
101.1000 21.9453
101.1500 24.8879
101.2000 33.8758
101.2500 38.9868
101.3000 34.4214
101.3500 26.4756
101.4000 25.1796
101.4500 32.4490
101.5000 37.8164
101.5500 28.0956
101.6000 34.4274
101.6500 20.9063
101.7000 20.8597
101.7500 26.5760
101.8000 32.1299
101.8500 32.5145
101.9000 40.6642
101.9500 34.1812
102.0000 20.9828
102.0500 30.8650
102.1000 31.3179
102.1500 26.7662
102.2000 35.4436
102.2500 25.4464
102.3000 28.5625
102.3500 23.7147
102.4000 32.0799
102.4500 25.6903
102.5000 27.3129
102.5500 34.3906
102.6000 40.0366
102.6500 34.2193
102.7000 23.9305
102.7500 26.6653
102.8000 29.1791
102.8500 38.9081
102.9000 30.8013
102.9500 30.5568
103.0000 25.2402
103.0500 28.4006
103.1000 28.6876
103.1500 26.3987
103.2000 24.6097
103.2500 27.0855
103.3000 32.4430
103.3500 39.8064
103.4000 30.9194
103.4500 31.9048
103.5000 28.2996
103.5500 41.5425
103.6000 22.6859
103.6500 27.1712
103.7000 27.1681
103.7500 31.8341
103.8000 22.7221
103.8500 33.9386
103.9000 26.3991
103.9500 35.5024
104.0000 33.0718
104.0500 20.4505
104.1000 36.4408
104.1500 31.7322
104.2000 36.8869
104.2500 29.2850
104.3000 23.4725
104.3500 21.2118
104.4000 24.8180
104.4500 33.5520
104.5000 35.2765
104.5500 33.6929
104.6000 31.3429
104.6500 31.6036
104.7000 20.9907
104.7500 37.3334
104.8000 27.6804
104.8500 26.2583
104.9000 34.3938
104.9500 38.3623
105.0000 27.2397
105.0500 29.4963
105.1000 24.2495
105.1500 33.0942
105.2000 26.6087
105.2500 27.3543
105.3000 35.3660
105.3500 32.3198
105.4000 37.1322
105.4500 35.9935
105.5000 25.8716
105.5500 36.2680
105.6000 29.4573
105.6500 33.1109
105.7000 20.5326
105.7500 35.7773
105.8000 32.5178
105.8500 26.0348
105.9000 41.5055
105.9500 32.9742
106.0000 26.5361
106.0500 28.7440
106.1000 34.3822
106.1500 29.3159
106.2000 31.4922
106.2500 43.9745
106.3000 40.1927
106.3500 24.6241
106.4000 32.8705
106.4500 25.9031
106.5000 19.5586
106.5500 30.2199
106.6000 37.4174
106.6500 28.3691
106.7000 27.6461
106.7500 37.5062
106.8000 27.8539
106.8500 34.6496
106.9000 31.6150
106.9500 38.6396
107.0000 32.4745
107.0500 21.4876
107.1000 43.3180
107.1500 35.2219
107.2000 22.1158
107.2500 25.5132
107.3000 25.0069
107.3500 34.1427
107.4000 32.2560
107.4500 27.6586
107.5000 23.4199
107.5500 27.5103
107.6000 39.3131
107.6500 31.4039
107.7000 26.2594
107.7500 26.5314
107.8000 36.1189
107.8500 39.1682
107.9000 31.7753
107.9500 28.8155
108.0000 27.3136
108.0500 21.6960
108.1000 23.7456
108.1500 32.0692
108.2000 39.8688
108.2500 37.5555
108.3000 33.4462
108.3500 30.8297
108.4000 37.7363
108.4500 23.7883
108.5000 36.8773
108.5500 28.6321
108.6000 26.6837
108.6500 33.3137
108.7000 40.0623
108.7500 24.4085
108.8000 27.3431
108.8500 40.9311
108.9000 28.4245
108.9500 30.5154
109.0000 45.2198
109.0500 27.0178
109.1000 27.6431
109.1500 28.0495
109.2000 37.6610
109.2500 23.2861
109.3000 31.5348
109.3500 32.2423
109.4000 31.5418
109.4500 31.7680
109.5000 32.4557
109.5500 23.2561
109.6000 29.2206
109.6500 27.1346
109.7000 24.7094
109.7500 33.4402
109.8000 28.0332
109.8500 29.5534
109.9000 27.0909
109.9500 27.7472
110.0000 25.3298
110.0500 28.5304
110.1000 26.7879
110.1500 25.1284
110.2000 23.1565
110.2500 31.5025
110.3000 35.6683
110.3500 28.3787
110.4000 23.1836
110.4500 27.2574
110.5000 27.3782
110.5500 22.5792
110.6000 26.1325
110.6500 22.0040
110.7000 30.2546
110.7500 36.1941
110.8000 29.0895
110.8500 24.3449
110.9000 26.5272
110.9500 41.9596
111.0000 30.6882
111.0500 34.4787
111.1000 31.8589
111.1500 32.4429
111.2000 25.7022
111.2500 26.8860
111.3000 34.0696
111.3500 35.9406
111.4000 29.3132
111.4500 24.3873
111.5000 26.6731
111.5500 24.4162
111.6000 32.6395
111.6500 25.0055
111.7000 32.6399
111.7500 29.7244
111.8000 28.2605
111.8500 22.1442
111.9000 28.6282
111.9500 37.6779
112.0000 31.9077
112.0500 37.7436
112.1000 26.1996
112.1500 29.9850
112.2000 34.3618
112.2500 28.3311
112.3000 23.0944
112.3500 29.2635
112.4000 26.0151
112.4500 34.1863
112.5000 50.4348
112.5500 30.3302
112.6000 43.7681
112.6500 27.3803
112.7000 43.6593
112.7500 28.1611
112.8000 36.5847
112.8500 31.3879
112.9000 42.9398
112.9500 31.6090
113.0000 31.1360
113.0500 28.6956
113.1000 19.4475
113.1500 27.1828
113.2000 24.7847
113.2500 26.2800
113.3000 39.8299
113.3500 21.4656
113.4000 30.9820
113.4500 27.8262
113.5000 28.0010
113.5500 27.8298
113.6000 30.4809
113.6500 23.9003
113.7000 31.2336
113.7500 33.0735
113.8000 33.9340
113.8500 24.4261
113.9000 21.3744
113.9500 35.9320
114.0000 26.1470
114.0500 31.2132
114.1000 28.1467
114.1500 33.0353
114.2000 36.2015
114.2500 28.7030
114.3000 32.6243
114.3500 30.1531
114.4000 32.8285
114.4500 20.3608
114.5000 35.3845
114.5500 19.5058
114.6000 30.9104
114.6500 35.2501
114.7000 41.2572
114.7500 27.2822
114.8000 39.8874
114.8500 33.8461
114.9000 23.5813
114.9500 22.5415
115.0000 19.9532
115.0500 31.2375
115.1000 32.0716
115.1500 28.9940
115.2000 31.2813
115.2500 32.1925
115.3000 34.2072
115.3500 44.5259
115.4000 42.9596
115.4500 49.6805
115.5000 48.3181
115.5500 50.3071
115.6000 54.2032
115.6500 61.4371
115.7000 57.9914
115.7500 80.7412
115.8000 80.6903
115.8500 94.8261
115.9000 97.7084
115.9500 91.1594
116.0000 83.1858
116.0500 95.4996
116.1000 65.4454
116.1500 60.0854
116.2000 54.2389
116.2500 48.4562
116.3000 30.9772
116.3500 46.6761
116.4000 30.4784
116.4500 36.3825
116.5000 41.0486
116.5500 30.8645
116.6000 49.6331
116.6500 32.5353
116.7000 36.2419
116.7500 30.7898
116.8000 28.1800
116.8500 31.9343
116.9000 22.9181
116.9500 29.0657
117.0000 27.5432
117.0500 34.2117
117.1000 35.5783
117.1500 21.3525
117.2000 32.9376
117.2500 31.9019
117.3000 19.4607
117.3500 23.4392
117.4000 30.4251
117.4500 34.1807
117.5000 28.6015
117.5500 39.9236
117.6000 29.7838
117.6500 27.2262
117.7000 32.6638
117.7500 27.1384
117.8000 28.5059
117.8500 22.3113
117.9000 29.2606
117.9500 23.0762
118.0000 25.9567
118.0500 34.7192
118.1000 21.8291
118.1500 25.0360
118.2000 29.1695
118.2500 24.3448
118.3000 24.1673
118.3500 28.7328
118.4000 19.8013
118.4500 38.6276
118.5000 21.2030
118.5500 26.2796
118.6000 27.9793
118.6500 27.6946
118.7000 27.9947
118.7500 28.7574
118.8000 30.0240
118.8500 30.9271
118.9000 29.6678
118.9500 23.1572
119.0000 24.6362
119.0500 34.5205
119.1000 35.4846
119.1500 29.6728
119.2000 26.5171
119.2500 36.4292
119.3000 23.7088
119.3500 28.9014
119.4000 34.1486
119.4500 26.1949
119.5000 38.8378
119.5500 28.8517
119.6000 33.3192
119.6500 32.9783
119.7000 39.9534
119.7500 35.5042
119.8000 26.8105
119.8500 26.9450
119.9000 28.5046
119.9500 32.2392
120.0000 44.1785
120.0500 27.0415
120.1000 33.2965
120.1500 30.7799
120.2000 32.1499
120.2500 30.8945
120.3000 29.1750
120.3500 27.7594
120.4000 27.4372
120.4500 22.7104
120.5000 26.8137
120.5500 32.1389
120.6000 24.6974
120.6500 31.9041
120.7000 33.5471
120.7500 26.2294
120.8000 32.2358
120.8500 33.3759
120.9000 27.5929
120.9500 28.5688
121.0000 24.6481
121.0500 28.8658
121.1000 26.2245
121.1500 29.7070
121.2000 37.0723
121.2500 22.6184
121.3000 26.2200
121.3500 29.4006
121.4000 32.2457
121.4500 29.1523
121.5000 24.9355
121.5500 29.6207
121.6000 41.4973
121.6500 27.3276
121.7000 38.8549
121.7500 34.9693
121.8000 35.2260
121.8500 23.6528
121.9000 32.7603
121.9500 31.4538
122.0000 33.7315
122.0500 32.1026
122.1000 35.7481
122.1500 31.9690
122.2000 30.4136
122.2500 32.1456
122.3000 25.2025
122.3500 37.3857
122.4000 34.5017
122.4500 23.9605
122.5000 33.5799
122.5500 36.2254
122.6000 41.0674
122.6500 32.5800
122.7000 40.7529
122.7500 32.7489
122.8000 23.1423
122.8500 27.5224
122.9000 31.9058
122.9500 27.3676
123.0000 30.5768
123.0500 17.0406
123.1000 23.6589
123.1500 29.2518
123.2000 26.8222
123.2500 34.6557
123.3000 34.9038
123.3500 17.1650
123.4000 23.3027
123.4500 39.1437
123.5000 35.4378
123.5500 38.9770
123.6000 33.9465
123.6500 26.4059
123.7000 28.6281
123.7500 31.5585
123.8000 34.8305
123.8500 31.3177
123.9000 26.9404
123.9500 30.3223
124.0000 19.1309
124.0500 32.5921
124.1000 37.2362
124.1500 35.5110
124.2000 29.7574
124.2500 31.7967
124.3000 22.0357
124.3500 39.7809
124.4000 23.8327
124.4500 35.5820
124.5000 28.9144
124.5500 27.0753
124.6000 31.2838
124.6500 40.7038
124.7000 32.5450
124.7500 28.0491
124.8000 28.6021
124.8500 32.8105
124.9000 33.0959
124.9500 32.1261
125.0000 29.9767
125.0500 27.7039
125.1000 24.8426
125.1500 22.9184
125.2000 37.1141
125.2500 35.2050
125.3000 29.4633
125.3500 35.2703
125.4000 39.4969
125.4500 35.3307
125.5000 37.9300
125.5500 26.3299
125.6000 34.4028
125.6500 39.0928
125.7000 23.2027
125.7500 27.7564
125.8000 24.3458
125.8500 27.5406
125.9000 29.1468
125.9500 32.2299
126.0000 34.2620
126.0500 31.8855
126.1000 24.4697
126.1500 28.0662
126.2000 25.1705
126.2500 24.1994
126.3000 22.3506
126.3500 36.3064
126.4000 21.8630
126.4500 31.0136
126.5000 36.6827
126.5500 29.1275
126.6000 22.2215
126.6500 31.8551
126.7000 34.7956
126.7500 32.6537
126.8000 35.4818
126.8500 39.9232
126.9000 35.7699
126.9500 29.3051
127.0000 24.7450
127.0500 21.3828
127.1000 34.1106
127.1500 33.6765
127.2000 27.5643
127.2500 30.8775
127.3000 33.3909
127.3500 35.9471
127.4000 24.2960
127.4500 22.3664
127.5000 21.0984
127.5500 36.2553
127.6000 29.8330
127.6500 32.1509
127.7000 31.2993
127.7500 36.3734
127.8000 26.6516
127.8500 31.9200
127.9000 26.8140
127.9500 22.7722
128.0000 32.1293
128.0500 23.8007
128.1000 24.2458
128.1500 37.4062
128.2000 22.1821
128.2500 27.4603
128.3000 33.7650
128.3500 26.4579
128.4000 32.1054
128.4500 29.3786
128.5000 30.3078
128.5500 24.6221
128.6000 27.7909
128.6500 29.9962
128.7000 41.0574
128.7500 28.2144
128.8000 22.8249
128.8500 28.3002
128.9000 35.4446
128.9500 38.5690
129.0000 33.8080
129.0500 31.2035
129.1000 32.0926
129.1500 16.9017
129.2000 35.2305
129.2500 25.6768
129.3000 25.8216
129.3500 25.8549
129.4000 20.2860
129.4500 41.1760
129.5000 33.8266
129.5500 36.3100
129.6000 28.8540
129.6500 35.0684
129.7000 34.5144
129.7500 30.9580
129.8000 32.5156
129.8500 42.1022
129.9000 22.9900
129.9500 21.9230
130.0000 30.4951
