#Collected Data-58
#Intensity_unit=counts
#Attenuator_coefficient=1.000000
40.0000 24.5352
40.0500 36.4874
40.1000 38.6125
40.1500 28.0716
40.2000 41.0463
40.2500 42.4861
40.3000 38.2264
40.3500 48.7182
40.4000 31.1715
40.4500 37.1906
40.5000 39.9501
40.5500 39.9877
40.6000 38.2762
40.6500 41.9794
40.7000 50.4556
40.7500 37.6241
40.8000 26.8761
40.8500 32.6827
40.9000 37.2231
40.9500 45.0364
41.0000 36.8861
41.0500 32.9962
41.1000 38.5916
41.1500 29.7197
41.2000 32.1859
41.2500 36.9086
41.3000 43.6549
41.3500 40.5931
41.4000 31.9836
41.4500 37.7144
41.5000 30.6537
41.5500 39.1730
41.6000 43.0433
41.6500 39.6300
41.7000 40.7633
41.7500 25.8908
41.8000 38.8361
41.8500 40.4462
41.9000 36.0976
41.9500 37.4309
42.0000 44.0595
42.0500 31.3983
42.1000 43.4125
42.1500 28.9685
42.2000 34.6107
42.2500 43.4921
42.3000 35.9761
42.3500 30.5934
42.4000 35.0934
42.4500 35.8927
42.5000 47.1783
42.5500 51.1438
42.6000 26.5552
42.6500 35.1824
42.7000 46.3211
42.7500 32.1689
42.8000 23.0303
42.8500 33.9488
42.9000 28.3589
42.9500 32.0186
43.0000 31.3461
43.0500 42.2715
43.1000 42.0807
43.1500 33.6358
43.2000 34.5276
43.2500 42.6690
43.3000 28.4821
43.3500 33.4631
43.4000 23.2355
43.4500 41.4860
43.5000 31.5241
43.5500 43.7992
43.6000 26.4082
43.6500 38.9257
43.7000 28.9552
43.7500 44.8247
43.8000 41.6183
43.8500 37.3364
43.9000 42.3268
43.9500 38.6668
44.0000 28.3006
44.0500 40.2734
44.1000 45.0528
44.1500 45.5092
44.2000 40.7729
44.2500 62.1156
44.3000 90.3015
44.3500 86.2068
44.4000 132.8338
44.4500 388.1565
44.5000 1221.7073
44.5500 2047.1522
44.6000 2128.8118
44.6500 1038.5728
44.7000 314.4247
44.7500 112.6724
44.8000 67.4062
44.8500 55.2910
44.9000 53.5670
44.9500 34.5585
45.0000 42.4602
45.0500 39.2446
45.1000 42.5930
45.1500 35.4679
45.2000 39.2192
45.2500 28.9319
45.3000 27.1791
45.3500 40.3439
45.4000 36.0600
45.4500 35.0520
45.5000 31.6683
45.5500 42.7867
45.6000 31.6265
45.6500 31.0057
45.7000 37.0649
45.7500 31.5779
45.8000 33.1763
45.8500 33.7227
45.9000 39.2450
45.9500 34.6316
46.0000 40.7745
46.0500 31.1905
46.1000 34.1073
46.1500 30.8024
46.2000 33.3687
46.2500 35.9098
46.3000 33.6718
46.3500 35.2325
46.4000 39.2035
46.4500 28.3279
46.5000 26.9769
46.5500 30.7296
46.6000 26.7330
46.6500 38.7006
46.7000 28.8000
46.7500 35.3817
46.8000 28.3975
46.8500 34.2383
46.9000 28.6907
46.9500 33.4780
47.0000 34.6106
47.0500 39.4882
47.1000 38.9196
47.1500 31.7805
47.2000 45.2878
47.2500 22.8709
47.3000 29.4135
47.3500 43.6560
47.4000 30.1246
47.4500 21.8887
47.5000 31.2862
47.5500 30.4005
47.6000 36.2561
47.6500 34.2039
47.7000 43.0799
47.7500 27.5883
47.8000 34.8738
47.8500 24.2293
47.9000 32.6708
47.9500 39.6348
48.0000 30.9969
48.0500 32.9948
48.1000 34.1700
48.1500 30.1831
48.2000 43.8083
48.2500 23.1212
48.3000 43.0392
48.3500 35.6703
48.4000 35.1031
48.4500 34.6821
48.5000 35.5354
48.5500 37.9791
48.6000 34.8178
48.6500 35.5609
48.7000 43.5553
48.7500 36.0446
48.8000 24.4959
48.8500 40.6029
48.9000 31.1297
48.9500 29.3945
49.0000 31.6467
49.0500 31.2944
49.1000 40.9809
49.1500 40.4277
49.2000 40.8869
49.2500 32.5545
49.3000 37.3047
49.3500 27.8866
49.4000 26.9594
49.4500 34.2276
49.5000 22.9708
49.5500 35.9974
49.6000 39.6962
49.6500 34.1383
49.7000 40.6611
49.7500 34.0503
49.8000 41.7306
49.8500 38.4141
49.9000 37.2007
49.9500 39.7824
50.0000 37.4719
50.0500 32.3429
50.1000 32.2046
50.1500 27.8737
50.2000 27.4769
50.2500 24.6144
50.3000 29.5989
50.3500 34.7391
50.4000 38.1540
50.4500 25.3819
50.5000 29.1610
50.5500 21.7673
50.6000 26.7856
50.6500 35.8377
50.7000 34.3120
50.7500 37.0340
50.8000 25.8528
50.8500 26.4516
50.9000 26.6676
50.9500 35.5244
51.0000 32.4467
51.0500 33.6119
51.1000 33.6954
51.1500 35.3563
51.2000 37.2714
51.2500 35.3970
51.3000 28.8227
51.3500 25.9283
51.4000 32.0738
51.4500 19.9206
51.5000 28.4890
51.5500 31.6386
51.6000 33.0086
51.6500 31.7539
51.7000 35.1684
51.7500 33.7806
51.8000 30.5657
51.8500 31.0596
51.9000 27.1714
51.9500 27.3948
52.0000 26.1106
52.0500 32.4600
52.1000 39.4973
52.1500 30.6830
52.2000 22.5767
52.2500 36.2706
52.3000 21.7382
52.3500 20.9048
52.4000 21.4717
52.4500 43.1407
52.5000 33.8487
52.5500 24.9320
52.6000 35.1448
52.6500 23.0995
52.7000 26.9036
52.7500 26.9403
52.8000 34.0156
52.8500 43.6577
52.9000 37.3954
52.9500 34.7875
53.0000 42.7785
53.0500 26.4611
53.1000 24.3747
53.1500 26.5557
53.2000 35.6002
53.2500 33.0768
53.3000 43.0270
53.3500 29.0047
53.4000 23.1312
53.4500 30.3967
53.5000 35.0906
53.5500 34.4325
53.6000 30.3316
53.6500 31.5984
53.7000 39.9395
53.7500 23.8201
53.8000 25.3500
53.8500 33.1258
53.9000 29.8932
53.9500 36.5518
54.0000 35.8119
54.0500 17.3188
54.1000 36.8444
54.1500 43.1527
54.2000 31.3718
54.2500 25.2611
54.3000 25.2066
54.3500 21.3410
54.4000 38.7524
54.4500 33.3383
54.5000 27.9764
54.5500 22.7129
54.6000 28.2528
54.6500 33.4566
54.7000 38.5722
54.7500 31.9218
54.8000 27.2066
54.8500 19.9970
54.9000 27.0571
54.9500 24.4139
55.0000 34.4663
55.0500 25.7550
55.1000 27.0480
55.1500 27.4988
55.2000 29.5028
55.2500 30.6418
55.3000 30.4462
55.3500 26.2053
55.4000 37.9142
55.4500 31.6893
55.5000 31.8722
55.5500 35.4997
55.6000 32.2450
55.6500 30.7244
55.7000 34.9404
55.7500 29.2784
55.8000 38.4364
55.8500 32.6818
55.9000 27.3658
55.9500 35.9463
56.0000 27.1636
56.0500 31.6079
56.1000 25.5732
56.1500 26.8559
56.2000 28.7111
56.2500 30.4102
56.3000 25.6945
56.3500 46.0554
56.4000 21.5673
56.4500 29.2658
56.5000 38.7647
56.5500 34.3973
56.6000 36.1798
56.6500 29.7210
56.7000 43.5931
56.7500 42.5369
56.8000 36.0205
56.8500 31.7020
56.9000 45.3606
56.9500 38.7644
57.0000 29.3356
57.0500 28.3233
57.1000 32.4044
57.1500 25.0914
57.2000 30.8465
57.2500 29.3317
57.3000 34.1869
57.3500 25.8735
57.4000 28.6907
57.4500 23.7205
57.5000 22.1375
57.5500 25.2014
57.6000 38.8987
57.6500 34.1924
57.7000 30.1855
57.7500 32.3538
57.8000 25.8793
57.8500 24.9716
57.9000 29.0070
57.9500 35.3117
58.0000 24.9939
58.0500 35.1236
58.1000 40.4648
58.1500 20.5547
58.2000 29.9051
58.2500 27.7473
58.3000 30.3629
58.3500 26.9001
58.4000 26.8081
58.4500 29.6876
58.5000 37.2998
58.5500 39.7795
58.6000 33.3192
58.6500 23.7113
58.7000 37.4600
58.7500 23.2162
58.8000 33.4817
58.8500 19.9588
58.9000 27.9990
58.9500 25.7570
59.0000 35.5659
59.0500 29.5895
59.1000 31.2974
59.1500 28.1202
59.2000 37.1628
59.2500 30.0030
59.3000 32.3963
59.3500 29.1489
59.4000 33.2066
59.4500 34.0707
59.5000 29.4898
59.5500 28.5683
59.6000 24.1645
59.6500 25.1939
59.7000 32.9227
59.7500 40.3681
59.8000 34.4669
59.8500 25.1585
59.9000 27.9031
59.9500 38.2508
60.0000 30.9981
60.0500 34.4581
60.1000 25.5974
60.1500 24.4541
60.2000 30.0892
60.2500 31.7191
60.3000 33.5255
60.3500 29.3524
60.4000 36.1410
60.4500 34.1209
60.5000 34.0724
60.5500 26.6117
60.6000 24.4015
60.6500 25.6752
60.7000 23.5943
60.7500 37.4010
60.8000 33.5989
60.8500 31.5647
60.9000 31.3644
60.9500 17.3473
61.0000 24.0161
61.0500 41.4025
61.1000 38.1085
61.1500 34.5906
61.2000 34.9258
61.2500 24.2594
61.3000 26.5075
61.3500 23.1835
61.4000 30.3417
61.4500 24.8126
61.5000 30.6241
61.5500 26.8249
61.6000 30.8481
61.6500 34.5011
61.7000 33.1219
61.7500 32.1926
61.8000 20.3333
61.8500 30.1637
61.9000 35.8625
61.9500 28.2334
62.0000 25.9097
62.0500 21.2511
62.1000 33.8374
62.1500 32.8678
62.2000 27.8103
62.2500 37.7037
62.3000 32.8878
62.3500 33.1621
62.4000 24.6608
62.4500 35.4724
62.5000 27.0785
62.5500 28.6063
62.6000 29.1383
62.6500 27.0890
62.7000 30.7648
62.7500 26.3654
62.8000 29.5540
62.8500 19.1871
62.9000 41.1347
62.9500 31.1773
63.0000 32.7736
63.0500 31.1480
63.1000 23.2743
63.1500 29.7061
63.2000 21.3890
63.2500 24.0445
63.3000 31.3655
63.3500 34.4312
63.4000 34.8995
63.4500 28.9771
63.5000 29.0094
63.5500 30.3079
63.6000 28.9654
63.6500 29.6827
63.7000 39.2041
63.7500 25.1204
63.8000 31.6075
63.8500 21.3968
63.9000 26.3006
63.9500 27.2398
64.0000 37.4973
64.0500 18.9878
64.1000 27.3560
64.1500 29.9449
64.2000 32.8813
64.2500 30.4024
64.3000 30.4355
64.3500 41.4350
64.4000 31.6890
64.4500 31.3191
64.5000 38.5573
64.5500 34.1538
64.6000 57.5070
64.6500 56.0474
64.7000 77.1734
64.7500 93.3635
64.8000 130.9983
64.8500 140.5421
64.9000 138.2006
64.9500 84.5440
65.0000 86.4943
65.0500 49.9816
65.1000 45.4336
65.1500 30.6321
65.2000 33.2327
65.2500 34.8144
65.3000 25.8864
65.3500 34.5619
65.4000 34.5678
65.4500 34.5717
65.5000 42.9745
65.5500 43.2153
65.6000 30.9177
65.6500 30.5861
65.7000 30.9474
65.7500 34.0415
65.8000 31.2791
65.8500 26.4080
65.9000 32.5767
65.9500 31.6389
66.0000 34.0363
66.0500 30.1529
66.1000 23.5213
66.1500 26.6193
66.2000 33.5589
66.2500 37.0723
66.3000 30.1206
66.3500 26.6650
66.4000 35.1180
66.4500 29.5260
66.5000 29.6647
66.5500 22.6774
66.6000 32.3018
66.6500 25.5633
66.7000 26.7560
66.7500 33.5586
66.8000 24.9422
66.8500 23.1294
66.9000 19.4453
66.9500 33.3654
67.0000 22.2437
67.0500 17.5329
67.1000 26.7320
67.1500 39.3365
67.2000 24.3805
67.2500 34.5962
67.3000 43.4606
67.3500 31.4021
67.4000 37.7339
67.4500 36.5406
67.5000 27.1750
67.5500 27.5913
67.6000 37.1591
67.6500 33.6231
67.7000 33.0331
67.7500 28.4957
67.8000 31.5601
67.8500 27.9058
67.9000 26.0222
67.9500 21.0982
68.0000 29.2828
68.0500 20.9556
68.1000 29.4992
68.1500 26.9162
68.2000 28.9512
68.2500 39.1714
68.3000 37.5046
68.3500 25.7077
68.4000 38.8754
68.4500 32.4066
68.5000 41.3952
68.5500 31.3949
68.6000 34.9145
68.6500 30.6778
68.7000 27.3342
68.7500 34.3400
68.8000 31.0936
68.8500 22.7808
68.9000 23.7780
68.9500 27.1934
69.0000 40.1503
69.0500 39.2177
69.1000 29.2149
69.1500 19.8343
69.2000 22.3496
69.2500 29.3671
69.3000 33.5951
69.3500 34.7911
69.4000 34.4323
69.4500 32.2934
69.5000 22.0362
69.5500 39.0088
69.6000 34.9458
69.6500 36.4179
69.7000 31.7920
69.7500 25.4120
69.8000 26.3511
69.8500 34.9698
69.9000 34.4616
69.9500 33.5315
70.0000 23.7656
70.0500 37.1546
70.1000 28.4014
70.1500 27.0862
70.2000 32.5499
70.2500 30.0771
70.3000 27.8764
70.3500 28.3765
70.4000 25.9228
70.4500 30.1307
70.5000 26.4985
70.5500 26.5220
70.6000 29.8555
70.6500 26.4111
70.7000 34.4922
70.7500 33.4925
70.8000 25.8902
70.8500 26.6116
70.9000 20.3063
70.9500 26.8388
71.0000 26.5893
71.0500 30.1253
71.1000 36.6164
71.1500 38.6140
71.2000 24.3532
71.2500 26.4842
71.3000 29.4910
71.3500 24.5377
71.4000 25.2413
71.4500 23.6242
71.5000 25.9276
71.5500 29.5500
71.6000 31.8424
71.6500 36.8671
71.7000 30.4799
71.7500 34.8286
71.8000 33.8504
71.8500 30.2497
71.9000 18.3247
71.9500 25.1451
72.0000 24.5693
72.0500 33.7637
72.1000 34.9124
72.1500 27.5239
72.2000 32.8609
72.2500 20.0960
72.3000 28.0578
72.3500 22.1340
72.4000 30.7525
72.4500 30.5466
72.5000 29.9378
72.5500 28.6909
72.6000 28.0295
72.6500 31.8984
72.7000 35.1522
72.7500 33.9270
72.8000 35.2966
72.8500 32.7950
72.9000 37.1849
72.9500 28.2584
73.0000 32.1942
73.0500 31.6882
73.1000 26.6807
73.1500 34.0966
73.2000 32.6408
73.2500 37.3697
73.3000 28.5436
73.3500 31.5039
73.4000 25.3075
73.4500 29.7824
73.5000 37.4717
73.5500 32.8707
73.6000 25.8975
73.6500 32.2801
73.7000 30.7590
73.7500 32.9912
73.8000 39.1482
73.8500 31.4760
73.9000 27.9186
73.9500 27.5089
74.0000 22.1700
74.0500 25.4810
74.1000 23.8764
74.1500 26.0438
74.2000 31.8640
74.2500 29.7933
74.3000 30.1179
74.3500 30.5336
74.4000 27.8262
74.4500 24.9988
74.5000 34.8327
74.5500 36.6574
74.6000 24.4083
74.6500 42.3221
74.7000 31.8629
74.7500 26.5337
74.8000 17.6964
74.8500 33.1714
74.9000 29.4827
74.9500 33.0591
75.0000 25.7492
75.0500 23.2727
75.1000 39.5966
75.1500 28.7815
75.2000 38.6127
75.2500 27.6489
75.3000 21.2795
75.3500 29.3067
75.4000 30.4609
75.4500 25.3159
75.5000 36.3741
75.5500 36.9649
75.6000 29.0073
75.6500 23.0896
75.7000 24.1046
75.7500 24.9946
75.8000 33.8562
75.8500 34.5579
75.9000 38.3091
75.9500 29.3390
76.0000 29.7583
76.0500 26.4374
76.1000 29.8073
76.1500 35.0937
76.2000 33.1754
76.2500 23.6934
76.3000 27.7044
76.3500 35.1919
76.4000 31.2959
76.4500 25.7723
76.5000 24.4918
76.5500 28.2011
76.6000 33.6364
76.6500 35.0458
76.7000 27.5208
76.7500 25.8209
76.8000 33.9092
76.8500 22.8391
76.9000 22.2033
76.9500 23.7185
77.0000 23.6096
77.0500 21.1062
77.1000 27.5137
77.1500 29.1277
77.2000 33.6644
77.2500 24.4314
77.3000 25.8579
77.3500 29.1229
77.4000 26.1967
77.4500 29.6874
77.5000 33.5148
77.5500 28.4131
77.6000 23.0613
77.6500 16.7403
77.7000 26.6324
77.7500 39.1682
77.8000 27.5500
77.8500 29.5726
77.9000 29.2624
77.9500 28.2840
78.0000 29.6901
78.0500 30.7493
78.1000 32.4340
78.1500 25.7791
78.2000 28.4670
78.2500 24.0621
78.3000 24.5743
78.3500 30.9411
78.4000 28.4336
78.4500 24.7524
78.5000 31.5448
78.5500 31.1450
78.6000 28.9138
78.6500 28.9656
78.7000 31.5003
78.7500 23.2805
78.8000 33.9930
78.8500 34.2957
78.9000 38.6198
78.9500 23.0598
79.0000 32.5388
79.0500 29.9064
79.1000 19.7132
79.1500 25.6103
79.2000 24.8480
79.2500 28.6356
79.3000 30.7340
79.3500 32.7675
79.4000 37.1285
79.4500 29.5370
79.5000 25.0901
79.5500 39.2385
79.6000 31.0931
79.6500 28.4564
79.7000 29.9053
79.7500 32.2078
79.8000 23.7629
79.8500 31.4927
79.9000 25.6387
79.9500 40.5422
80.0000 26.8413
80.0500 22.7455
80.1000 30.4129
80.1500 24.9388
80.2000 24.3861
80.2500 22.9927
80.3000 30.7887
80.3500 26.4898
80.4000 38.7109
80.4500 21.4535
80.5000 27.0335
80.5500 39.3368
80.6000 41.1676
80.6500 29.0845
80.7000 24.3848
80.7500 25.1725
80.8000 23.3962
80.8500 36.6726
80.9000 32.4584
80.9500 34.4270
81.0000 28.8769
81.0500 27.0823
81.1000 26.4852
81.1500 25.5895
81.2000 31.7581
81.2500 24.8356
81.3000 31.0266
81.3500 27.4640
81.4000 38.2997
81.4500 35.3726
81.5000 21.0823
81.5500 28.4724
81.6000 36.0237
81.6500 30.0884
81.7000 30.1811
81.7500 35.0079
81.8000 41.5676
81.8500 31.5584
81.9000 59.1588
81.9500 80.9349
82.0000 125.7531
82.0500 201.3371
82.1000 272.9218
82.1500 290.0101
82.2000 228.4934
82.2500 115.9009
82.3000 81.8352
82.3500 56.6358
82.4000 42.0618
82.4500 37.1060
82.5000 32.2949
82.5500 36.3754
82.6000 42.1452
82.6500 28.3212
82.7000 34.9018
82.7500 32.8197
82.8000 22.8048
82.8500 33.4620
82.9000 23.3978
82.9500 33.4151
83.0000 27.9084
83.0500 23.8893
83.1000 27.1283
83.1500 37.0245
83.2000 31.3796
83.2500 38.3221
83.3000 27.8523
83.3500 21.5503
83.4000 22.7304
83.4500 36.6339
83.5000 30.6654
83.5500 27.6160
83.6000 24.9472
83.6500 29.1409
83.7000 26.4912
83.7500 31.2018
83.8000 20.3905
83.8500 25.9495
83.9000 35.5264
83.9500 26.0225
84.0000 31.9261
84.0500 28.9783
84.1000 28.1164
84.1500 37.4911
84.2000 27.9047
84.2500 35.8338
84.3000 27.5280
84.3500 35.6899
84.4000 26.0067
84.4500 26.8285
84.5000 36.6573
84.5500 31.5955
84.6000 36.4477
84.6500 18.9257
84.7000 39.1499
84.7500 22.9137
84.8000 39.3489
84.8500 33.0331
84.9000 25.8977
84.9500 18.9295
85.0000 29.2277
85.0500 27.9025
85.1000 25.8667
85.1500 33.0877
85.2000 29.4460
85.2500 29.6791
85.3000 21.3994
85.3500 26.6558
85.4000 30.8983
85.4500 21.8030
85.5000 27.2952
85.5500 31.3216
85.6000 37.3377
85.6500 29.6665
85.7000 31.5125
85.7500 23.1331
85.8000 35.1836
85.8500 32.0507
85.9000 33.9229
85.9500 27.6168
86.0000 30.1984
86.0500 38.6335
86.1000 29.0438
86.1500 38.3576
86.2000 27.3519
86.2500 21.3121
86.3000 27.2174
86.3500 28.9234
86.4000 22.8950
86.4500 28.8922
86.5000 22.8800
86.5500 34.8545
86.6000 39.2595
86.6500 23.9044
86.7000 29.6679
86.7500 41.6438
86.8000 33.3404
86.8500 27.8867
86.9000 32.1615
86.9500 32.8499
87.0000 22.8166
87.0500 28.6601
87.1000 24.6814
87.1500 26.6025
87.2000 32.6764
87.2500 29.9711
87.3000 30.0376
87.3500 32.8310
87.4000 30.1787
87.4500 32.5293
87.5000 28.9088
87.5500 25.0660
87.6000 28.1342
87.6500 34.3306
87.7000 32.6755
87.7500 28.2063
87.8000 28.2439
87.8500 33.4079
87.9000 25.1257
87.9500 33.7044
88.0000 38.4745
88.0500 28.8775
88.1000 32.5916
88.1500 23.9138
88.2000 29.2334
88.2500 30.7421
88.3000 16.9411
88.3500 39.8475
88.4000 29.0364
88.4500 32.2394
88.5000 35.0021
88.5500 21.6807
88.6000 32.9028
88.6500 21.6855
88.7000 35.5216
88.7500 27.2261
88.8000 28.9834
88.8500 40.9778
88.9000 28.2339
88.9500 27.1072
89.0000 29.1042
89.0500 27.4345
89.1000 30.3772
89.1500 30.9529
89.2000 26.1232
89.2500 29.8692
89.3000 31.7141
89.3500 32.3612
89.4000 39.5375
89.4500 29.6782
89.5000 25.0268
89.5500 26.2260
89.6000 38.1630
89.6500 34.2386
89.7000 30.3437
89.7500 30.2211
89.8000 21.6144
89.8500 26.0658
89.9000 29.6976
89.9500 31.9983
90.0000 25.1133
90.0500 39.3035
90.1000 33.1481
90.1500 33.3480
90.2000 18.1046
90.2500 23.0433
90.3000 26.3932
90.3500 30.5716
90.4000 25.2718
90.4500 34.2709
90.5000 24.3000
90.5500 32.6726
90.6000 31.0285
90.6500 30.6299
90.7000 28.2824
90.7500 41.6055
90.8000 33.2273
90.8500 26.5924
90.9000 42.1154
90.9500 27.1850
91.0000 19.8277
91.0500 27.5497
91.1000 32.4000
91.1500 32.2343
91.2000 35.6505
91.2500 39.8455
91.3000 25.3055
91.3500 25.8826
91.4000 35.4364
91.4500 30.8476
91.5000 30.2833
91.5500 20.6298
91.6000 29.1618
91.6500 29.4809
91.7000 31.2338
91.7500 28.3833
91.8000 27.0281
91.8500 20.3496
91.9000 27.5430
91.9500 27.2605
92.0000 30.6869
92.0500 35.6652
92.1000 29.0379
92.1500 23.6908
92.2000 28.3805
92.2500 29.0360
92.3000 35.5916
92.3500 28.7520
92.4000 28.6815
92.4500 27.9669
92.5000 36.0393
92.5500 24.8486
92.6000 32.0705
92.6500 23.6030
92.7000 28.9185
92.7500 28.4998
92.8000 23.3513
92.8500 29.5013
92.9000 30.1001
92.9500 35.0862
93.0000 27.1896
93.0500 35.2035
93.1000 30.6276
93.1500 36.7706
93.2000 28.5533
93.2500 28.0802
93.3000 35.1962
93.3500 30.5692
93.4000 31.7742
93.4500 31.4674
93.5000 29.2062
93.5500 24.8247
93.6000 26.4289
93.6500 23.3329
93.7000 26.1126
93.7500 21.7254
93.8000 26.4467
93.8500 29.1616
93.9000 18.6514
93.9500 22.1553
94.0000 22.2347
94.0500 31.9536
94.1000 33.7966
94.1500 32.6424
94.2000 10.7776
94.2500 23.3241
94.3000 29.0883
94.3500 24.5275
94.4000 31.7447
94.4500 30.2444
94.5000 20.8884
94.5500 31.2994
94.6000 27.9483
94.6500 26.7439
94.7000 20.1682
94.7500 36.5514
94.8000 28.6150
94.8500 34.9120
94.9000 35.6500
94.9500 31.3487
95.0000 33.0840
95.0500 26.1786
95.1000 26.9811
95.1500 37.5457
95.2000 15.2935
95.2500 27.0564
95.3000 22.3637
95.3500 27.3966
95.4000 26.7912
95.4500 35.4195
95.5000 31.0490
95.5500 31.3759
95.6000 42.2209
95.6500 26.9932
95.7000 33.8053
95.7500 31.1653
95.8000 34.0004
95.8500 27.2408
95.9000 27.1328
95.9500 22.8034
96.0000 29.9986
96.0500 27.5256
96.1000 36.0953
96.1500 27.8521
96.2000 40.1110
96.2500 36.6665
96.3000 26.6931
96.3500 33.6237
96.4000 25.7229
96.4500 33.9574
96.5000 39.4341
96.5500 23.4920
96.6000 28.0522
96.6500 23.5119
96.7000 24.5518
96.7500 35.0106
96.8000 25.5393
96.8500 26.2309
96.9000 30.1479
96.9500 24.8242
97.0000 27.2800
97.0500 36.8215
97.1000 33.4790
97.1500 29.3382
97.2000 23.9933
97.2500 23.8954
97.3000 20.8169
97.3500 28.3133
97.4000 30.7852
97.4500 33.7100
97.5000 40.3987
97.5500 29.2908
97.6000 30.0829
97.6500 33.8858
97.7000 31.9837
97.7500 31.3083
97.8000 33.0290
97.8500 28.0556
97.9000 26.6641
97.9500 31.5085
98.0000 26.0596
98.0500 33.0411
98.1000 31.3709
98.1500 26.9546
98.2000 21.0466
98.2500 31.1284
98.3000 39.8646
98.3500 27.6265
98.4000 42.5923
98.4500 63.1325
98.5000 53.5052
98.5500 91.1127
98.6000 125.5660
98.6500 162.3478
98.7000 167.6446
98.7500 119.9992
98.8000 80.1332
98.8500 62.4565
98.9000 57.2333
98.9500 42.4041
99.0000 36.4898
99.0500 35.5474
99.1000 28.6489
99.1500 31.8868
99.2000 28.4925
99.2500 28.4476
99.3000 26.6716
99.3500 31.8549
99.4000 25.2152
99.4500 21.7185
99.5000 29.1969
99.5500 35.8804
99.6000 32.5827
99.6500 35.7900
99.7000 41.6088
99.7500 23.8862
99.8000 31.8469
99.8500 26.1777
99.9000 25.5690
99.9500 40.8276
100.0000 33.3382
100.0500 27.3328
100.1000 33.3231
100.1500 37.2203
100.2000 30.9277
100.2500 36.6431
100.3000 33.0989
100.3500 25.4304
100.4000 33.3918
100.4500 27.5131
100.5000 36.9890
100.5500 27.9880
100.6000 28.5961
100.6500 27.8422
100.7000 26.5764
100.7500 23.5716
100.8000 31.1095
100.8500 35.8481
100.9000 26.2116
100.9500 29.2889
101.0000 36.4682
101.0500 24.7089
101.1000 32.3988
101.1500 30.9538
101.2000 28.4113
101.2500 22.5347
101.3000 35.3141
101.3500 35.4485
101.4000 29.9110
101.4500 24.1322
101.5000 37.9833
101.5500 30.4400
101.6000 35.3052
101.6500 24.6459
101.7000 29.9688
101.7500 36.3174
101.8000 20.5382
101.8500 30.3793
101.9000 28.5719
101.9500 34.0666
102.0000 28.6424
102.0500 28.3518
102.1000 32.9190
102.1500 28.0351
102.2000 25.2501
102.2500 26.5138
102.3000 28.8091
102.3500 30.2142
102.4000 28.4446
102.4500 29.3133
102.5000 30.1050
102.5500 23.5209
102.6000 31.2134
102.6500 28.6144
102.7000 32.9143
102.7500 28.5110
102.8000 24.3569
102.8500 24.2163
102.9000 27.4712
102.9500 35.0067
103.0000 24.1330
103.0500 26.7605
103.1000 34.7819
103.1500 36.9990
103.2000 29.6338
103.2500 28.6998
103.3000 31.6295
103.3500 31.0552
103.4000 28.6465
103.4500 34.5375
103.5000 36.5434
103.5500 29.0084
103.6000 26.4439
103.6500 33.9435
103.7000 27.0234
103.7500 32.0914
103.8000 31.6822
103.8500 20.1524
103.9000 39.2962
103.9500 27.6145
104.0000 22.4968
104.0500 25.7698
104.1000 30.4840
104.1500 23.0918
104.2000 25.1521
104.2500 38.4700
104.3000 32.7419
104.3500 27.1274
104.4000 27.0946
104.4500 29.3360
104.5000 32.2853
104.5500 27.3731
104.6000 35.0044
104.6500 33.6283
104.7000 26.8915
104.7500 22.3162
104.8000 33.0134
104.8500 34.4845
104.9000 33.4021
104.9500 31.7736
105.0000 38.5513
105.0500 38.8448
105.1000 31.3453
105.1500 46.9010
105.2000 30.2521
105.2500 27.0555
105.3000 27.2014
105.3500 37.2661
105.4000 20.6294
105.4500 30.4425
105.5000 35.8572
105.5500 33.8970
105.6000 38.6287
105.6500 28.5333
105.7000 36.0289
105.7500 32.9534
105.8000 30.4054
105.8500 26.0733
105.9000 32.8631
105.9500 29.5234
106.0000 31.7938
106.0500 30.7298
106.1000 32.7249
106.1500 25.8185
106.2000 26.3408
106.2500 29.7778
106.3000 29.9377
106.3500 26.8295
106.4000 29.6797
106.4500 33.1362
106.5000 35.7893
106.5500 28.4438
106.6000 28.8709
106.6500 26.5158
106.7000 26.4388
106.7500 29.8706
106.8000 33.8466
106.8500 24.4944
106.9000 21.9048
106.9500 26.5506
107.0000 24.9629
107.0500 33.6854
107.1000 21.8956
107.1500 25.8335
107.2000 36.6344
107.2500 32.1564
107.3000 28.3505
107.3500 40.6491
107.4000 29.0669
107.4500 19.0220
107.5000 37.1313
107.5500 24.0285
107.6000 23.9493
107.6500 18.8693
107.7000 30.3858
107.7500 27.0123
107.8000 35.0013
107.8500 44.9055
107.9000 24.2828
107.9500 40.4380
108.0000 32.9745
108.0500 28.5184
108.1000 42.2013
108.1500 40.3378
108.2000 25.4342
108.2500 37.1387
108.3000 24.7094
108.3500 21.3942
108.4000 26.0256
108.4500 28.6867
108.5000 25.7006
108.5500 21.3213
108.6000 29.1942
108.6500 35.6426
108.7000 34.5323
108.7500 34.6467
108.8000 28.4721
108.8500 32.6278
108.9000 34.7581
108.9500 35.2337
109.0000 32.1858
109.0500 29.3582
109.1000 35.5235
109.1500 27.1686
109.2000 23.6572
109.2500 27.6425
109.3000 28.3587
109.3500 21.7229
109.4000 20.7581
109.4500 23.2442
109.5000 24.1788
109.5500 30.5744
109.6000 41.6796
109.6500 31.1915
109.7000 38.2635
109.7500 34.1513
109.8000 28.7562
109.8500 31.8780
109.9000 21.5876
109.9500 32.6157
110.0000 20.7340
110.0500 28.0107
110.1000 30.2035
110.1500 29.5798
110.2000 35.3038
110.2500 32.2178
110.3000 29.1102
110.3500 28.6974
110.4000 28.6501
110.4500 31.0126
110.5000 27.7622
110.5500 27.5605
110.6000 26.1067
110.6500 26.2638
110.7000 31.9206
110.7500 23.8921
110.8000 20.3170
110.8500 28.5491
110.9000 30.6601
110.9500 30.3562
111.0000 39.7550
111.0500 32.5764
111.1000 36.5822
111.1500 32.7535
111.2000 31.1302
111.2500 30.5688
111.3000 28.2545
111.3500 27.5743
111.4000 30.2108
111.4500 25.0764
111.5000 20.4026
111.5500 32.1485
111.6000 28.6173
111.6500 24.1248
111.7000 26.3430
111.7500 34.0476
111.8000 38.8817
111.8500 29.5332
111.9000 26.7756
111.9500 17.8362
112.0000 28.0956
112.0500 33.3948
112.1000 34.5133
112.1500 33.7953
112.2000 30.5019
112.2500 30.0772
112.3000 33.8506
112.3500 30.2440
112.4000 24.3410
112.4500 31.9063
112.5000 29.8003
112.5500 32.3489
112.6000 28.4296
112.6500 27.1779
112.7000 29.0831
112.7500 21.9597
112.8000 26.0692
112.8500 37.1654
112.9000 26.9639
112.9500 28.2065
113.0000 31.6166
113.0500 27.0373
113.1000 22.3836
113.1500 33.2183
113.2000 28.6408
113.2500 35.6167
113.3000 32.3564
113.3500 28.1382
113.4000 38.7049
113.4500 26.4176
113.5000 36.1205
113.5500 40.4675
113.6000 26.8196
113.6500 27.8070
113.7000 29.6108
113.7500 34.8420
113.8000 34.1136
113.8500 29.0934
113.9000 20.4178
113.9500 32.8960
114.0000 31.5819
114.0500 27.5008
114.1000 33.7060
114.1500 26.4173
114.2000 41.4622
114.2500 26.3322
114.3000 22.5062
114.3500 25.4366
114.4000 37.9699
114.4500 25.2794
114.5000 24.3301
114.5500 26.6634
114.6000 26.9404
114.6500 32.2520
114.7000 25.1638
114.7500 23.7745
114.8000 17.7955
114.8500 38.7710
114.9000 43.9933
114.9500 31.6949
115.0000 30.1918
115.0500 27.9263
115.1000 34.8400
115.1500 32.8342
115.2000 34.8933
115.2500 37.6745
115.3000 34.4306
115.3500 32.2844
115.4000 34.4845
115.4500 29.6453
115.5000 41.6869
115.5500 33.4470
115.6000 36.6056
115.6500 33.3979
115.7000 46.6648
115.7500 73.2649
115.8000 75.0004
115.8500 68.3783
115.9000 79.6012
115.9500 104.8545
116.0000 118.8264
116.0500 114.2421
116.1000 92.6712
116.1500 90.8858
116.2000 84.6537
116.2500 58.6954
116.3000 44.8518
116.3500 44.1382
116.4000 37.9758
116.4500 30.7737
116.5000 44.2251
116.5500 32.8099
116.6000 48.3133
116.6500 37.7372
116.7000 32.9497
116.7500 40.5340
116.8000 27.1784
116.8500 40.9785
116.9000 35.6762
116.9500 21.3776
117.0000 28.4952
117.0500 38.1886
117.1000 25.5728
117.1500 30.2954
117.2000 33.9992
117.2500 38.7959
117.3000 28.6960
117.3500 26.4865
117.4000 23.5597
117.4500 36.2320
117.5000 27.6985
117.5500 36.1241
117.6000 31.1633
117.6500 24.4867
117.7000 33.6397
117.7500 28.0725
117.8000 32.1908
117.8500 38.6934
117.9000 28.0460
117.9500 25.9360
118.0000 37.2425
118.0500 35.1619
118.1000 36.9821
118.1500 29.0000
118.2000 12.7811
118.2500 24.2062
118.3000 24.2930
118.3500 24.0327
118.4000 33.1203
118.4500 30.4562
118.5000 27.5864
118.5500 25.1526
118.6000 18.5628
118.6500 19.1080
118.7000 29.0048
118.7500 27.4097
118.8000 28.7172
118.8500 33.7729
118.9000 38.1214
118.9500 29.5586
119.0000 29.1213
119.0500 33.2163
119.1000 41.1700
119.1500 32.4594
119.2000 25.4239
119.2500 29.4904
119.3000 24.5329
119.3500 29.0601
119.4000 36.0027
119.4500 26.9506
119.5000 25.2263
119.5500 36.1600
119.6000 30.0690
119.6500 30.9213
119.7000 17.1068
119.7500 21.9221
119.8000 24.5859
119.8500 22.6878
119.9000 34.0010
119.9500 22.8291
120.0000 23.8941
120.0500 25.2256
120.1000 34.0582
120.1500 19.7318
120.2000 27.7268
120.2500 28.0838
120.3000 32.9658
120.3500 31.8399
120.4000 34.5745
120.4500 30.4047
120.5000 28.0583
120.5500 27.0504
120.6000 29.8680
120.6500 26.7714
120.7000 23.7959
120.7500 25.9127
120.8000 34.2955
120.8500 17.7030
120.9000 28.3744
120.9500 35.8506
121.0000 33.4317
121.0500 29.4589
121.1000 25.0605
121.1500 33.1832
121.2000 31.6445
121.2500 34.3045
121.3000 18.0128
121.3500 33.0851
121.4000 37.3424
121.4500 40.2439
121.5000 33.8189
121.5500 38.8073
121.6000 30.5445
121.6500 27.8157
121.7000 36.4264
121.7500 34.5238
121.8000 24.2025
121.8500 33.6960
121.9000 25.6565
121.9500 18.1093
122.0000 34.0900
122.0500 28.2182
122.1000 27.9882
122.1500 30.4245
122.2000 29.9253
122.2500 27.3920
122.3000 25.4390
122.3500 36.7989
122.4000 32.9072
122.4500 50.9807
122.5000 26.9048
122.5500 26.1213
122.6000 29.5446
122.6500 28.6655
122.7000 30.5386
122.7500 29.6451
122.8000 38.6575
122.8500 35.7507
122.9000 24.4260
122.9500 25.0442
123.0000 35.2396
123.0500 27.5029
123.1000 33.0050
123.1500 27.3044
123.2000 26.2069
123.2500 30.7590
123.3000 21.2015
123.3500 27.7073
123.4000 32.3929
123.4500 34.1854
123.5000 24.6019
123.5500 30.9274
123.6000 28.9095
123.6500 37.3715
123.7000 34.2188
123.7500 32.9475
123.8000 25.2962
123.8500 36.4390
123.9000 39.8006
123.9500 21.7855
124.0000 34.9850
124.0500 34.9073
124.1000 35.1481
124.1500 29.3091
124.2000 34.7649
124.2500 33.6452
124.3000 37.3742
124.3500 27.0990
124.4000 30.7175
124.4500 37.9119
124.5000 28.7401
124.5500 22.7125
124.6000 23.1346
124.6500 32.9639
124.7000 27.3049
124.7500 22.3022
124.8000 27.7311
124.8500 35.0492
124.9000 31.1729
124.9500 18.0045
125.0000 22.7108
125.0500 30.1740
125.1000 32.0807
125.1500 28.4470
125.2000 25.3935
125.2500 37.2941
125.3000 31.3685
125.3500 29.0255
125.4000 25.9534
125.4500 27.5460
125.5000 29.9226
125.5500 25.5380
125.6000 37.2190
125.6500 36.1512
125.7000 31.7370
125.7500 26.7959
125.8000 39.3174
125.8500 25.0092
125.9000 31.7898
125.9500 29.4233
126.0000 27.0945
126.0500 41.9846
126.1000 37.8570
126.1500 27.6433
126.2000 32.9618
126.2500 27.9949
126.3000 29.5218
126.3500 29.0005
126.4000 31.8544
126.4500 27.4598
126.5000 29.9569
126.5500 28.3469
126.6000 33.7523
126.6500 28.5390
126.7000 21.9070
126.7500 29.6607
126.8000 29.7127
126.8500 32.6464
126.9000 30.0451
126.9500 28.2581
127.0000 34.4638
127.0500 32.6775
127.1000 33.6222
127.1500 30.0772
127.2000 23.6675
127.2500 43.2425
127.3000 26.3300
127.3500 29.5049
127.4000 29.4776
127.4500 33.0914
127.5000 33.4123
127.5500 33.1641
127.6000 32.9134
127.6500 35.3503
127.7000 31.1683
127.7500 33.7064
127.8000 25.0524
127.8500 23.4112
127.9000 28.4937
127.9500 23.3208
128.0000 35.1636
128.0500 47.5383
128.1000 32.3725
128.1500 26.3030
128.2000 28.7113
128.2500 31.0633
128.3000 21.5306
128.3500 33.1584
128.4000 47.1228
128.4500 30.2619
128.5000 47.6300
128.5500 38.8125
128.6000 27.8225
128.6500 26.5979
128.7000 22.3036
128.7500 37.3298
128.8000 26.0879
128.8500 32.4807
128.9000 31.8976
128.9500 29.0895
129.0000 37.6278
129.0500 26.1957
129.1000 28.1520
129.1500 29.1738
129.2000 34.7054
129.2500 27.7309
129.3000 43.5800
129.3500 40.3284
129.4000 39.9977
129.4500 23.7732
129.5000 38.2417
129.5500 36.3142
129.6000 24.9126
129.6500 28.7602
129.7000 34.0529
129.7500 31.5018
129.8000 27.9486
129.8500 30.5540
129.9000 31.5458
129.9500 27.1725
130.0000 27.6914
