#Collected Data-70
#Intensity_unit=counts
#Attenuator_coefficient=1.000000
40.0000 23.3995
40.0500 41.4884
40.1000 38.6905
40.1500 41.7274
40.2000 42.8146
40.2500 37.8971
40.3000 43.6483
40.3500 30.6896
40.4000 50.6484
40.4500 39.9482
40.5000 34.5514
40.5500 34.1574
40.6000 45.6408
40.6500 38.5471
40.7000 36.6195
40.7500 31.0193
40.8000 38.3654
40.8500 32.7997
40.9000 36.3868
40.9500 45.2897
41.0000 52.8187
41.0500 39.8240
41.1000 42.2438
41.1500 36.6634
41.2000 37.8575
41.2500 36.8746
41.3000 40.7595
41.3500 42.0615
41.4000 37.3278
41.4500 39.9454
41.5000 42.7294
41.5500 38.0238
41.6000 45.3031
41.6500 30.8269
41.7000 45.7092
41.7500 39.1379
41.8000 40.2560
41.8500 38.7842
41.9000 37.1814
41.9500 36.5873
42.0000 30.8585
42.0500 34.8848
42.1000 34.6083
42.1500 22.3285
42.2000 27.2981
42.2500 29.2330
42.3000 41.2650
42.3500 46.7019
42.4000 36.4263
42.4500 37.7444
42.5000 33.0560
42.5500 41.7771
42.6000 26.3701
42.6500 53.2799
42.7000 36.9937
42.7500 35.0535
42.8000 43.1961
42.8500 44.9017
42.9000 30.7061
42.9500 26.5450
43.0000 41.6127
43.0500 30.2545
43.1000 34.0975
43.1500 46.2941
43.2000 31.9989
43.2500 25.1559
43.3000 32.5655
43.3500 33.6920
43.4000 39.7832
43.4500 32.3533
43.5000 42.2309
43.5500 39.8270
43.6000 36.0268
43.6500 33.6197
43.7000 40.7066
43.7500 43.5496
43.8000 44.7367
43.8500 38.2526
43.9000 45.2449
43.9500 33.1441
44.0000 40.1449
44.0500 52.7771
44.1000 57.4893
44.1500 66.9327
44.2000 73.6793
44.2500 73.3199
44.3000 100.6630
44.3500 145.5897
44.4000 314.4661
44.4500 888.2224
44.5000 1907.5051
44.5500 2288.8906
44.6000 1821.3536
44.6500 834.7219
44.7000 325.6033
44.7500 139.7479
44.8000 115.1853
44.8500 56.7578
44.9000 58.4471
44.9500 55.7325
45.0000 41.1782
45.0500 36.6951
45.1000 30.6492
45.1500 47.9342
45.2000 33.9138
45.2500 34.9615
45.3000 42.2130
45.3500 50.2290
45.4000 28.4313
45.4500 34.4248
45.5000 45.5845
45.5500 40.6574
45.6000 41.3203
45.6500 38.4367
45.7000 48.2399
45.7500 48.4054
45.8000 40.9140
45.8500 21.3010
45.9000 36.4877
45.9500 44.7809
46.0000 30.8339
46.0500 34.9306
46.1000 39.8376
46.1500 38.5279
46.2000 45.1161
46.2500 42.3708
46.3000 38.2135
46.3500 44.3931
46.4000 33.8873
46.4500 30.8025
46.5000 34.1885
46.5500 41.3218
46.6000 28.0473
46.6500 28.4722
46.7000 32.7256
46.7500 26.7381
46.8000 30.8882
46.8500 40.9345
46.9000 28.9176
46.9500 34.5482
47.0000 43.8452
47.0500 24.2551
47.1000 28.4500
47.1500 38.0891
47.2000 29.4465
47.2500 28.8077
47.3000 36.0545
47.3500 33.5391
47.4000 39.0744
47.4500 38.3122
47.5000 35.4438
47.5500 37.3339
47.6000 38.7109
47.6500 32.4973
47.7000 44.2072
47.7500 35.2432
47.8000 37.2168
47.8500 38.7311
47.9000 23.0820
47.9500 34.2462
48.0000 29.8747
48.0500 31.9510
48.1000 39.6369
48.1500 28.5917
48.2000 33.3173
48.2500 24.8254
48.3000 34.9731
48.3500 41.9288
48.4000 31.2298
48.4500 23.9664
48.5000 29.9720
48.5500 29.3382
48.6000 52.8144
48.6500 37.3120
48.7000 34.5242
48.7500 33.4928
48.8000 33.1491
48.8500 31.6844
48.9000 43.4085
48.9500 37.9880
49.0000 40.5033
49.0500 39.2559
49.1000 33.2040
49.1500 31.2599
49.2000 38.5192
49.2500 40.6050
49.3000 30.6914
49.3500 31.1754
49.4000 36.9071
49.4500 43.0059
49.5000 27.8535
49.5500 37.5827
49.6000 28.3850
49.6500 20.9806
49.7000 28.5489
49.7500 32.0745
49.8000 40.2685
49.8500 26.8539
49.9000 30.1110
49.9500 33.5577
50.0000 35.2890
50.0500 36.0526
50.1000 38.0439
50.1500 28.0495
50.2000 34.8563
50.2500 37.8922
50.3000 31.1484
50.3500 29.4304
50.4000 30.4882
50.4500 30.7711
50.5000 27.7310
50.5500 36.9167
50.6000 30.8892
50.6500 34.7656
50.7000 25.4593
50.7500 35.9359
50.8000 40.8569
50.8500 32.5360
50.9000 37.0050
50.9500 28.4858
51.0000 21.7693
51.0500 35.2274
51.1000 30.5734
51.1500 42.7638
51.2000 37.2785
51.2500 28.3354
51.3000 32.5175
51.3500 36.6485
51.4000 30.2187
51.4500 34.5089
51.5000 35.4728
51.5500 31.6609
51.6000 33.6705
51.6500 33.6518
51.7000 26.6098
51.7500 36.1507
51.8000 33.3483
51.8500 27.2205
51.9000 33.3356
51.9500 35.0230
52.0000 37.5782
52.0500 29.1176
52.1000 24.5066
52.1500 36.0409
52.2000 20.3868
52.2500 35.3156
52.3000 43.6671
52.3500 24.4661
52.4000 28.1170
52.4500 29.7242
52.5000 50.4161
52.5500 36.4056
52.6000 37.5135
52.6500 34.5983
52.7000 32.2055
52.7500 22.3740
52.8000 40.6031
52.8500 35.3611
52.9000 25.1773
52.9500 42.0920
53.0000 27.9571
53.0500 26.4625
53.1000 37.6854
53.1500 30.5392
53.2000 27.7390
53.2500 37.7113
53.3000 44.0087
53.3500 31.5875
53.4000 40.0658
53.4500 29.8896
53.5000 42.0737
53.5500 31.3352
53.6000 34.3707
53.6500 35.4714
53.7000 26.5798
53.7500 29.9382
53.8000 31.9070
53.8500 27.6138
53.9000 35.0045
53.9500 39.3995
54.0000 29.4483
54.0500 36.9100
54.1000 39.2819
54.1500 26.3562
54.2000 33.9415
54.2500 25.3718
54.3000 40.3150
54.3500 26.3371
54.4000 36.8652
54.4500 30.0558
54.5000 24.2571
54.5500 35.3121
54.6000 31.9935
54.6500 27.8831
54.7000 30.5745
54.7500 29.3950
54.8000 39.8228
54.8500 33.8657
54.9000 33.1841
54.9500 32.3158
55.0000 28.5054
55.0500 30.8922
55.1000 32.0466
55.1500 30.6224
55.2000 23.8383
55.2500 35.7129
55.3000 33.9125
55.3500 35.1669
55.4000 38.7268
55.4500 26.4320
55.5000 33.9980
55.5500 36.6455
55.6000 21.8058
55.6500 25.8174
55.7000 25.8268
55.7500 33.3379
55.8000 42.6647
55.8500 37.7302
55.9000 34.6359
55.9500 36.1553
56.0000 32.7884
56.0500 32.7570
56.1000 32.2656
56.1500 32.1653
56.2000 33.4065
56.2500 30.0253
56.3000 21.1714
56.3500 25.2812
56.4000 33.1674
56.4500 37.6926
56.5000 36.5180
56.5500 33.6133
56.6000 30.0793
56.6500 22.0783
56.7000 27.0309
56.7500 32.1001
56.8000 41.5423
56.8500 30.7331
56.9000 23.4698
56.9500 25.9995
57.0000 38.7539
57.0500 35.4745
57.1000 40.9827
57.1500 32.1865
57.2000 31.1142
57.2500 30.8923
57.3000 35.5433
57.3500 27.7941
57.4000 45.7044
57.4500 34.4056
57.5000 36.2274
57.5500 36.1701
57.6000 36.6437
57.6500 36.2100
57.7000 36.4500
57.7500 27.5845
57.8000 32.5337
57.8500 23.2002
57.9000 28.1321
57.9500 26.4885
58.0000 22.1912
58.0500 31.2533
58.1000 27.8292
58.1500 30.3377
58.2000 29.8395
58.2500 23.2705
58.3000 28.2276
58.3500 33.1883
58.4000 35.5183
58.4500 31.8065
58.5000 28.2396
58.5500 30.3377
58.6000 27.8838
58.6500 33.4942
58.7000 33.2055
58.7500 26.9325
58.8000 25.4534
58.8500 41.5594
58.9000 37.1995
58.9500 38.9879
59.0000 26.3744
59.0500 34.3943
59.1000 32.6583
59.1500 32.1926
59.2000 36.0473
59.2500 39.7799
59.3000 23.8732
59.3500 28.1165
59.4000 26.5825
59.4500 35.3172
59.5000 31.6056
59.5500 27.3176
59.6000 26.3908
59.6500 36.5198
59.7000 33.4937
59.7500 38.3576
59.8000 39.1952
59.8500 30.8928
59.9000 30.5687
59.9500 31.9726
60.0000 34.8261
60.0500 31.4584
60.1000 28.9985
60.1500 41.6782
60.2000 37.1007
60.2500 32.1345
60.3000 36.2317
60.3500 22.0733
60.4000 34.7502
60.4500 40.8833
60.5000 26.7157
60.5500 22.9474
60.6000 36.6829
60.6500 33.3112
60.7000 28.1187
60.7500 25.5394
60.8000 30.5405
60.8500 29.6091
60.9000 32.9625
60.9500 29.8898
61.0000 31.4999
61.0500 29.4090
61.1000 21.5761
61.1500 30.2055
61.2000 33.6086
61.2500 34.6537
61.3000 35.1046
61.3500 26.5253
61.4000 32.5840
61.4500 41.7341
61.5000 34.3739
61.5500 36.5731
61.6000 36.1478
61.6500 26.4729
61.7000 33.4569
61.7500 30.5805
61.8000 32.4913
61.8500 27.6508
61.9000 30.3831
61.9500 24.3000
62.0000 36.4853
62.0500 35.1982
62.1000 29.2106
62.1500 28.2131
62.2000 36.6278
62.2500 42.9927
62.3000 35.7657
62.3500 38.3925
62.4000 38.8905
62.4500 23.0653
62.5000 28.5147
62.5500 38.9784
62.6000 29.1613
62.6500 39.0107
62.7000 30.0009
62.7500 29.3856
62.8000 27.3062
62.8500 37.3603
62.9000 40.1269
62.9500 32.3670
63.0000 36.1032
63.0500 30.4857
63.1000 20.6328
63.1500 26.7923
63.2000 37.8722
63.2500 24.7664
63.3000 23.4606
63.3500 28.6936
63.4000 34.8358
63.4500 26.0927
63.5000 33.4600
63.5500 40.0034
63.6000 32.3037
63.6500 29.8720
63.7000 31.4329
63.7500 43.8057
63.8000 32.8617
63.8500 32.3056
63.9000 23.3953
63.9500 43.4562
64.0000 29.1400
64.0500 28.8669
64.1000 57.9041
64.1500 37.2780
64.2000 35.3296
64.2500 37.3302
64.3000 25.3691
64.3500 37.9821
64.4000 39.2122
64.4500 36.9345
64.5000 45.5744
64.5500 54.4219
64.6000 49.7494
64.6500 64.0708
64.7000 88.5620
64.7500 129.3421
64.8000 130.4112
64.8500 119.9880
64.9000 102.9172
64.9500 67.3214
65.0000 55.2750
65.0500 29.6530
65.1000 36.9284
65.1500 41.3079
65.2000 33.8303
65.2500 28.1658
65.3000 29.8684
65.3500 28.1956
65.4000 19.1663
65.4500 43.8995
65.5000 23.2825
65.5500 42.2925
65.6000 36.1210
65.6500 30.7456
65.7000 32.9456
65.7500 45.3552
65.8000 35.4420
65.8500 19.1433
65.9000 31.1189
65.9500 28.9950
66.0000 29.9499
66.0500 28.3482
66.1000 27.3590
66.1500 27.9262
66.2000 28.4041
66.2500 33.9224
66.3000 38.5738
66.3500 24.5920
66.4000 37.6679
66.4500 27.4635
66.5000 25.5190
66.5500 31.1468
66.6000 33.5582
66.6500 33.7314
66.7000 26.5866
66.7500 33.4240
66.8000 32.7471
66.8500 23.2864
66.9000 26.7856
66.9500 31.5023
67.0000 27.1480
67.0500 38.6198
67.1000 29.9116
67.1500 28.8820
67.2000 30.9578
67.2500 30.8652
67.3000 38.9170
67.3500 21.9082
67.4000 29.2361
67.4500 33.2138
67.5000 35.6767
67.5500 38.3620
67.6000 26.5649
67.6500 23.2594
67.7000 28.9419
67.7500 29.3586
67.8000 29.5425
67.8500 24.8133
67.9000 37.7537
67.9500 34.3494
68.0000 26.0580
68.0500 31.2187
68.1000 37.8293
68.1500 31.3236
68.2000 30.6884
68.2500 39.1681
68.3000 25.9417
68.3500 33.4171
68.4000 29.9088
68.4500 31.1479
68.5000 32.5934
68.5500 36.6981
68.6000 34.7458
68.6500 30.6537
68.7000 21.3976
68.7500 21.0973
68.8000 27.7149
68.8500 27.6480
68.9000 30.2270
68.9500 33.4247
69.0000 31.6151
69.0500 29.9973
69.1000 42.0685
69.1500 26.0762
69.2000 35.1418
69.2500 32.8863
69.3000 32.1841
69.3500 34.7231
69.4000 27.4944
69.4500 36.6123
69.5000 31.7064
69.5500 29.6780
69.6000 26.4827
69.6500 32.1989
69.7000 30.8826
69.7500 33.2813
69.8000 37.0073
69.8500 25.3976
69.9000 19.5513
69.9500 32.8995
70.0000 28.1482
70.0500 33.0357
70.1000 30.7624
70.1500 24.3128
70.2000 28.2985
70.2500 37.2231
70.3000 26.4285
70.3500 22.3191
70.4000 30.4329
70.4500 24.8678
70.5000 28.8614
70.5500 21.9296
70.6000 28.6401
70.6500 45.5233
70.7000 29.8876
70.7500 35.0343
70.8000 35.5833
70.8500 37.8904
70.9000 29.8812
70.9500 37.8418
71.0000 25.2498
71.0500 25.0392
71.1000 33.4836
71.1500 30.3730
71.2000 25.8454
71.2500 19.9753
71.3000 26.6212
71.3500 24.3363
71.4000 33.0920
71.4500 36.3167
71.5000 22.2855
71.5500 24.4153
71.6000 32.8887
71.6500 23.3516
71.7000 32.1143
71.7500 28.6853
71.8000 33.2524
71.8500 28.6053
71.9000 28.3876
71.9500 27.2215
72.0000 34.5721
72.0500 29.1464
72.1000 24.2985
72.1500 21.8059
72.2000 37.3155
72.2500 29.6366
72.3000 20.6292
72.3500 34.4891
72.4000 31.4071
72.4500 40.1932
72.5000 28.4060
72.5500 27.4146
72.6000 41.3201
72.6500 26.3907
72.7000 38.9101
72.7500 33.3334
72.8000 37.2549
72.8500 41.1978
72.9000 29.6400
72.9500 24.1477
73.0000 27.0528
73.0500 32.7955
73.1000 33.2868
73.1500 30.9831
73.2000 39.9849
73.2500 29.2632
73.3000 24.6645
73.3500 25.7143
73.4000 37.7881
73.4500 31.7758
73.5000 22.9422
73.5500 32.5887
73.6000 43.7006
73.6500 26.1526
73.7000 31.4185
73.7500 30.6624
73.8000 27.3563
73.8500 22.9263
73.9000 43.1520
73.9500 35.5328
74.0000 38.5047
74.0500 32.7075
74.1000 21.7489
74.1500 29.0359
74.2000 30.2486
74.2500 29.1229
74.3000 33.2280
74.3500 34.5939
74.4000 32.7991
74.4500 21.5934
74.5000 24.3875
74.5500 39.1178
74.6000 32.4898
74.6500 35.9908
74.7000 27.6339
74.7500 29.2988
74.8000 39.9225
74.8500 34.4765
74.9000 33.9687
74.9500 44.7410
75.0000 29.7622
75.0500 39.7788
75.1000 31.9634
75.1500 31.9289
75.2000 33.1997
75.2500 39.2385
75.3000 26.7527
75.3500 26.4953
75.4000 38.0592
75.4500 46.1004
75.5000 31.9491
75.5500 17.2410
75.6000 35.5493
75.6500 33.3183
75.7000 30.4884
75.7500 22.1246
75.8000 39.2384
75.8500 24.5195
75.9000 38.5927
75.9500 31.0598
76.0000 45.1072
76.0500 27.5739
76.1000 22.9481
76.1500 35.5245
76.2000 28.4856
76.2500 38.6819
76.3000 30.9257
76.3500 23.4611
76.4000 33.9368
76.4500 28.1973
76.5000 36.3978
76.5500 30.8808
76.6000 29.1988
76.6500 36.7199
76.7000 34.3443
76.7500 31.8250
76.8000 27.6766
76.8500 27.8494
76.9000 25.7359
76.9500 22.7674
77.0000 36.1791
77.0500 24.9281
77.1000 27.9761
77.1500 21.4123
77.2000 23.4653
77.2500 27.1202
77.3000 23.1558
77.3500 43.5127
77.4000 30.2929
77.4500 28.4079
77.5000 24.6766
77.5500 31.7710
77.6000 21.9501
77.6500 40.6101
77.7000 35.6531
77.7500 36.9900
77.8000 27.9675
77.8500 19.2078
77.9000 31.2362
77.9500 34.8368
78.0000 31.0553
78.0500 36.9663
78.1000 33.0405
78.1500 32.7001
78.2000 32.6517
78.2500 25.6647
78.3000 24.8506
78.3500 31.4943
78.4000 39.0490
78.4500 35.7505
78.5000 29.4896
78.5500 29.9575
78.6000 32.7195
78.6500 34.2574
78.7000 38.7607
78.7500 34.4918
78.8000 28.9395
78.8500 30.7547
78.9000 34.5470
78.9500 27.5497
79.0000 38.6399
79.0500 35.8696
79.1000 26.6769
79.1500 38.3435
79.2000 20.6570
79.2500 30.1541
79.3000 38.7603
79.3500 31.6703
79.4000 34.1607
79.4500 28.6153
79.5000 33.8142
79.5500 32.0914
79.6000 32.6512
79.6500 35.2090
79.7000 36.4441
79.7500 33.5565
79.8000 26.8557
79.8500 25.1024
79.9000 32.6269
79.9500 37.6852
80.0000 36.7848
80.0500 34.6601
80.1000 31.3832
80.1500 29.1383
80.2000 27.9424
80.2500 31.2784
80.3000 32.4071
80.3500 23.9863
80.4000 30.1297
80.4500 28.8351
80.5000 28.8482
80.5500 39.1397
80.6000 29.8496
80.6500 32.9297
80.7000 43.3143
80.7500 28.4800
80.8000 31.3224
80.8500 27.0664
80.9000 32.6286
80.9500 24.0100
81.0000 28.7286
81.0500 34.6064
81.1000 39.6282
81.1500 26.6296
81.2000 20.7904
81.2500 38.0542
81.3000 27.0948
81.3500 30.2443
81.4000 31.9295
81.4500 31.1481
81.5000 31.3277
81.5500 44.1619
81.6000 31.4612
81.6500 29.1419
81.7000 39.4714
81.7500 32.7140
81.8000 44.8200
81.8500 59.9219
81.9000 90.0785
81.9500 145.7309
82.0000 197.6585
82.0500 248.6218
82.1000 317.7787
82.1500 210.5098
82.2000 165.3735
82.2500 79.8204
82.3000 53.3942
82.3500 44.6742
82.4000 40.8226
82.4500 41.0218
82.5000 34.3236
82.5500 35.6398
82.6000 34.3487
82.6500 29.5239
82.7000 35.2344
82.7500 30.4062
82.8000 29.7605
82.8500 27.2986
82.9000 32.4016
82.9500 37.5150
83.0000 25.3723
83.0500 30.7034
83.1000 34.8866
83.1500 28.1602
83.2000 30.2315
83.2500 35.9586
83.3000 47.2040
83.3500 35.8124
83.4000 31.3736
83.4500 29.8263
83.5000 25.1659
83.5500 28.0884
83.6000 35.2005
83.6500 20.3675
83.7000 28.7138
83.7500 32.5022
83.8000 19.8097
83.8500 36.1356
83.9000 25.4007
83.9500 25.2561
84.0000 25.0553
84.0500 27.9500
84.1000 27.7068
84.1500 32.9858
84.2000 34.4859
84.2500 37.6045
84.3000 32.7458
84.3500 34.0355
84.4000 32.4838
84.4500 42.9955
84.5000 23.6253
84.5500 28.0790
84.6000 36.7216
84.6500 33.5657
84.7000 30.0487
84.7500 25.9148
84.8000 35.0922
84.8500 34.0307
84.9000 29.6659
84.9500 39.6701
85.0000 36.5325
85.0500 35.1062
85.1000 19.7975
85.1500 29.9350
85.2000 32.4044
85.2500 36.8549
85.3000 34.1303
85.3500 18.8714
85.4000 24.0327
85.4500 28.3279
85.5000 26.2615
85.5500 31.4755
85.6000 28.6504
85.6500 33.2009
85.7000 42.2233
85.7500 31.7924
85.8000 27.1420
85.8500 33.7705
85.9000 31.2132
85.9500 31.0296
86.0000 31.0306
86.0500 33.6477
86.1000 29.3086
86.1500 48.9577
86.2000 42.1450
86.2500 23.2174
86.3000 24.5601
86.3500 35.5306
86.4000 40.5373
86.4500 27.1756
86.5000 29.7698
86.5500 38.8329
86.6000 35.3880
86.6500 35.0580
86.7000 23.7434
86.7500 34.4419
86.8000 31.7749
86.8500 29.3912
86.9000 32.9375
86.9500 28.0556
87.0000 33.5438
87.0500 34.7205
87.1000 23.8661
87.1500 34.3546
87.2000 27.1616
87.2500 23.5837
87.3000 27.2027
87.3500 22.3823
87.4000 30.5644
87.4500 29.8543
87.5000 18.1950
87.5500 31.2957
87.6000 27.2643
87.6500 34.5852
87.7000 20.4033
87.7500 28.8377
87.8000 29.1329
87.8500 35.2398
87.9000 32.6922
87.9500 27.7950
88.0000 30.8183
88.0500 28.2886
88.1000 40.8991
88.1500 27.8176
88.2000 28.9930
88.2500 27.8789
88.3000 27.6928
88.3500 27.1456
88.4000 24.1987
88.4500 24.9179
88.5000 30.7658
88.5500 35.5775
88.6000 26.4857
88.6500 26.3592
88.7000 36.0578
88.7500 40.9675
88.8000 28.8849
88.8500 26.1164
88.9000 23.2506
88.9500 31.0781
89.0000 33.4640
89.0500 30.8176
89.1000 36.1280
89.1500 31.3201
89.2000 28.2909
89.2500 28.5184
89.3000 30.9891
89.3500 32.4328
89.4000 38.1073
89.4500 29.1518
89.5000 17.8031
89.5500 31.8986
89.6000 29.5240
89.6500 35.1569
89.7000 29.8168
89.7500 20.9185
89.8000 34.5328
89.8500 26.2402
89.9000 33.1942
89.9500 25.8429
90.0000 34.4448
90.0500 38.6968
90.1000 32.6449
90.1500 30.0739
90.2000 26.7935
90.2500 25.1378
90.3000 36.8714
90.3500 30.6682
90.4000 33.7181
90.4500 33.3513
90.5000 32.2208
90.5500 30.7032
90.6000 31.5824
90.6500 39.9314
90.7000 34.5122
90.7500 28.0516
90.8000 21.3156
90.8500 37.1717
90.9000 31.6578
90.9500 28.9789
91.0000 38.3383
91.0500 30.0424
91.1000 33.3348
91.1500 23.1568
91.2000 32.5138
91.2500 27.7385
91.3000 28.0398
91.3500 26.5926
91.4000 33.2264
91.4500 33.0646
91.5000 26.0843
91.5500 27.2997
91.6000 25.3827
91.6500 27.3830
91.7000 32.8464
91.7500 21.2684
91.8000 25.0820
91.8500 24.4305
91.9000 20.6807
91.9500 32.6811
92.0000 26.5599
92.0500 29.0235
92.1000 20.6035
92.1500 27.1241
92.2000 38.1607
92.2500 26.9992
92.3000 24.6996
92.3500 39.8422
92.4000 25.4791
92.4500 38.5098
92.5000 18.1983
92.5500 33.1576
92.6000 27.7123
92.6500 27.8575
92.7000 25.8397
92.7500 35.2452
92.8000 33.2859
92.8500 25.1882
92.9000 28.7569
92.9500 32.0550
93.0000 41.2926
93.0500 24.6680
93.1000 34.1804
93.1500 24.0158
93.2000 20.9783
93.2500 31.3228
93.3000 22.4818
93.3500 26.0017
93.4000 23.9156
93.4500 16.7119
93.5000 34.0425
93.5500 28.9178
93.6000 35.5033
93.6500 40.3914
93.7000 23.5534
93.7500 25.2395
93.8000 34.1931
93.8500 32.0570
93.9000 36.1421
93.9500 35.1442
94.0000 32.9822
94.0500 32.0524
94.1000 26.9300
94.1500 31.8950
94.2000 26.8500
94.2500 30.3165
94.3000 30.9779
94.3500 29.1849
94.4000 26.3625
94.4500 34.9737
94.5000 30.7749
94.5500 21.0686
94.6000 32.9712
94.6500 23.5113
94.7000 33.1519
94.7500 39.1464
94.8000 26.2948
94.8500 14.3046
94.9000 28.8686
94.9500 27.1425
95.0000 31.4629
95.0500 32.1450
95.1000 31.1644
95.1500 36.3582
95.2000 35.0188
95.2500 32.0982
95.3000 24.1816
95.3500 26.6701
95.4000 33.2141
95.4500 27.7575
95.5000 27.5626
95.5500 35.0956
95.6000 29.1785
95.6500 29.2548
95.7000 26.5362
95.7500 31.8969
95.8000 26.7878
95.8500 36.9046
95.9000 26.6863
95.9500 38.6141
96.0000 33.2235
96.0500 33.7375
96.1000 32.2523
96.1500 35.3813
96.2000 39.4689
96.2500 32.1963
96.3000 33.5772
96.3500 30.3991
96.4000 28.7942
96.4500 29.2262
96.5000 37.2577
96.5500 42.9375
96.6000 29.3249
96.6500 37.2155
96.7000 33.8397
96.7500 32.9723
96.8000 30.4428
96.8500 23.0405
96.9000 30.6719
96.9500 29.1056
97.0000 37.6899
97.0500 23.2012
97.1000 34.5879
97.1500 25.6279
97.2000 23.2749
97.2500 27.5497
97.3000 35.7835
97.3500 31.0466
97.4000 25.3966
97.4500 31.4035
97.5000 37.3139
97.5500 34.4086
97.6000 41.0510
97.6500 35.1253
97.7000 29.9760
97.7500 24.9533
97.8000 28.1657
97.8500 29.5699
97.9000 27.9279
97.9500 35.6026
98.0000 32.6579
98.0500 45.0184
98.1000 45.8432
98.1500 33.4069
98.2000 43.0530
98.2500 42.9015
98.3000 34.4872
98.3500 46.4852
98.4000 54.8251
98.4500 76.0551
98.5000 102.1043
98.5500 115.8336
98.6000 157.4160
98.6500 147.4991
98.7000 143.1257
98.7500 85.2493
98.8000 73.9644
98.8500 48.3640
98.9000 55.0818
98.9500 41.4811
99.0000 31.9059
99.0500 34.0317
99.1000 29.6343
99.1500 32.2148
99.2000 29.5169
99.2500 36.7980
99.3000 38.0079
99.3500 32.9949
99.4000 26.7785
99.4500 30.9805
99.5000 39.6403
99.5500 37.2596
99.6000 31.7530
99.6500 26.8587
99.7000 25.6660
99.7500 25.4036
99.8000 35.9325
99.8500 38.5917
99.9000 31.4654
99.9500 24.6192
100.0000 28.7566
100.0500 35.3479
100.1000 37.4315
100.1500 34.7369
100.2000 37.4919
100.2500 31.4400
100.3000 31.1185
100.3500 36.2901
100.4000 28.4891
100.4500 35.8392
100.5000 26.1175
100.5500 25.3257
100.6000 38.6057
100.6500 25.7446
100.7000 37.8432
100.7500 25.7267
100.8000 29.3802
100.8500 36.0114
100.9000 34.1175
100.9500 20.5856
101.0000 30.2947
101.0500 39.8028
101.1000 23.6413
101.1500 33.8823
101.2000 46.5965
101.2500 31.2360
101.3000 40.7855
101.3500 30.9901
101.4000 24.9042
101.4500 32.1125
101.5000 30.7385
101.5500 24.9881
101.6000 29.7253
101.6500 40.2164
101.7000 31.5713
101.7500 31.9694
101.8000 31.6381
101.8500 31.5822
101.9000 30.6878
101.9500 38.5847
102.0000 25.5957
102.0500 24.9344
102.1000 26.9649
102.1500 22.1642
102.2000 36.3091
102.2500 25.0051
102.3000 29.0511
102.3500 20.8281
102.4000 23.7253
102.4500 29.9243
102.5000 28.0252
102.5500 25.2353
102.6000 30.3789
102.6500 25.8210
102.7000 38.3901
102.7500 26.9443
102.8000 30.8759
102.8500 40.1500
102.9000 28.3672
102.9500 29.3750
103.0000 34.2106
103.0500 24.7405
103.1000 30.3580
103.1500 30.3158
103.2000 31.1596
103.2500 26.4417
103.3000 27.7491
103.3500 19.0584
103.4000 26.3792
103.4500 30.2017
103.5000 27.5387
103.5500 33.6709
103.6000 35.2280
103.6500 32.2129
103.7000 21.8944
103.7500 33.8300
103.8000 28.7162
103.8500 34.0127
103.9000 25.6500
103.9500 29.1475
104.0000 25.0541
104.0500 31.2970
104.1000 24.1705
104.1500 39.3702
104.2000 31.0738
104.2500 28.3034
104.3000 30.3885
104.3500 36.1925
104.4000 35.5444
104.4500 30.6207
104.5000 29.8994
104.5500 28.8489
104.6000 29.4939
104.6500 34.9640
104.7000 21.2794
104.7500 33.2765
104.8000 30.7497
104.8500 29.5530
104.9000 28.3905
104.9500 38.1323
105.0000 40.9270
105.0500 34.4811
105.1000 35.6331
105.1500 35.5814
105.2000 19.9184
105.2500 31.1284
105.3000 22.2511
105.3500 30.9523
105.4000 31.3358
105.4500 41.3612
105.5000 30.6765
105.5500 27.4463
105.6000 35.5808
105.6500 39.6000
105.7000 29.0643
105.7500 27.0247
105.8000 30.0640
105.8500 32.6315
105.9000 37.6042
105.9500 27.2790
106.0000 26.7471
106.0500 28.2187
106.1000 23.9506
106.1500 30.4756
106.2000 26.6749
106.2500 24.8941
106.3000 37.5051
106.3500 31.9439
106.4000 31.8692
106.4500 35.1250
106.5000 22.0093
106.5500 30.5014
106.6000 25.7614
106.6500 19.2619
106.7000 15.9552
106.7500 34.6675
106.8000 33.4785
106.8500 30.3588
106.9000 30.3629
106.9500 36.8287
107.0000 32.0465
107.0500 39.9966
107.1000 29.4358
107.1500 28.4069
107.2000 27.8558
107.2500 29.4315
107.3000 28.8128
107.3500 33.3471
107.4000 38.9863
107.4500 29.9428
107.5000 24.1436
107.5500 32.1458
107.6000 28.5110
107.6500 39.4657
107.7000 27.7882
107.7500 21.0160
107.8000 30.7859
107.8500 25.0188
107.9000 27.2728
107.9500 21.9186
108.0000 26.0477
108.0500 37.3456
108.1000 31.4704
108.1500 25.1153
108.2000 31.1299
108.2500 21.4116
108.3000 32.4999
108.3500 27.2664
108.4000 22.4658
108.4500 36.4458
108.5000 28.8905
108.5500 32.8549
108.6000 42.3041
108.6500 32.2397
108.7000 29.4578
108.7500 19.3429
108.8000 29.6787
108.8500 25.6094
108.9000 23.4325
108.9500 33.8191
109.0000 29.5193
109.0500 36.6218
109.1000 37.2582
109.1500 24.0725
109.2000 26.7170
109.2500 33.2483
109.3000 30.2595
109.3500 29.1634
109.4000 32.8466
109.4500 38.6783
109.5000 41.8433
109.5500 21.9333
109.6000 22.9634
109.6500 37.1838
109.7000 28.1980
109.7500 28.5958
109.8000 32.9327
109.8500 34.3621
109.9000 31.0959
109.9500 24.4656
110.0000 41.2469
110.0500 27.3642
110.1000 30.4607
110.1500 29.1839
110.2000 22.6663
110.2500 19.8771
110.3000 26.7970
110.3500 36.3450
110.4000 25.0581
110.4500 32.1732
110.5000 28.7807
110.5500 29.0118
110.6000 20.2436
110.6500 20.1215
110.7000 30.8044
110.7500 36.7966
110.8000 32.7743
110.8500 38.6150
110.9000 29.1156
110.9500 32.4334
111.0000 20.4155
111.0500 25.4551
111.1000 26.1148
111.1500 27.4982
111.2000 39.3687
111.2500 25.4649
111.3000 28.4174
111.3500 23.9473
111.4000 18.4035
111.4500 24.1073
111.5000 28.4521
111.5500 31.3738
111.6000 27.7611
111.6500 26.7504
111.7000 32.1024
111.7500 27.4805
111.8000 36.7522
111.8500 34.4517
111.9000 23.8898
111.9500 33.8804
112.0000 37.8936
112.0500 33.0751
112.1000 27.0751
112.1500 28.7472
112.2000 28.7161
112.2500 31.4315
112.3000 29.4033
112.3500 31.1613
112.4000 29.5710
112.4500 26.6360
112.5000 20.5102
112.5500 29.0276
112.6000 28.2186
112.6500 32.8628
112.7000 18.1900
112.7500 19.9678
112.8000 29.6818
112.8500 24.8897
112.9000 34.5418
112.9500 41.6282
113.0000 33.4115
113.0500 30.0908
113.1000 30.0783
113.1500 43.1655
113.2000 31.1190
113.2500 30.4296
113.3000 34.7811
113.3500 32.1534
113.4000 27.2104
113.4500 16.4904
113.5000 25.1596
113.5500 24.2990
113.6000 33.2582
113.6500 31.0148
113.7000 29.7064
113.7500 29.8986
113.8000 25.6970
113.8500 33.9685
113.9000 28.5839
113.9500 32.4760
114.0000 33.3174
114.0500 26.7083
114.1000 27.8591
114.1500 32.6101
114.2000 28.7481
114.2500 33.0630
114.3000 30.4102
114.3500 30.5872
114.4000 31.9683
114.4500 33.3685
114.5000 24.0877
114.5500 22.2279
114.6000 32.2640
114.6500 23.7735
114.7000 35.6844
114.7500 35.7552
114.8000 22.4091
114.8500 36.8034
114.9000 30.1637
114.9500 23.6573
115.0000 36.9794
115.0500 29.6848
115.1000 28.8067
115.1500 32.5860
115.2000 39.6197
115.2500 26.9336
115.3000 38.5979
115.3500 33.9542
115.4000 39.7492
115.4500 38.5053
115.5000 44.2203
115.5500 46.8977
115.6000 56.5068
115.6500 62.2739
115.7000 59.2502
115.7500 79.9658
115.8000 110.5100
115.8500 107.2528
115.9000 110.7574
115.9500 94.5478
116.0000 98.4193
116.0500 95.7130
116.1000 77.5943
116.1500 61.6590
116.2000 56.4447
116.2500 36.5123
116.3000 46.8415
116.3500 35.1372
116.4000 37.9204
116.4500 40.8740
116.5000 34.1643
116.5500 34.1128
116.6000 28.6362
116.6500 25.9042
116.7000 34.5608
116.7500 40.2124
116.8000 40.2894
116.8500 42.3193
116.9000 35.3325
116.9500 37.4836
117.0000 31.5410
117.0500 33.4924
117.1000 21.9236
117.1500 38.1866
117.2000 26.2507
117.2500 31.2265
117.3000 26.4487
117.3500 34.6168
117.4000 23.1129
117.4500 31.8390
117.5000 33.2040
117.5500 32.5375
117.6000 36.0510
117.6500 25.5771
117.7000 27.1939
117.7500 23.9584
117.8000 39.4232
117.8500 31.9102
117.9000 26.4908
117.9500 29.9503
118.0000 34.5773
118.0500 24.0728
118.1000 25.3350
118.1500 29.3242
118.2000 26.2375
118.2500 38.2135
118.3000 12.5232
118.3500 31.9735
118.4000 32.2467
118.4500 25.4301
118.5000 25.1946
118.5500 30.3744
118.6000 32.0695
118.6500 21.2318
118.7000 36.8547
118.7500 21.2888
118.8000 26.1278
118.8500 25.3096
118.9000 27.1613
118.9500 21.6949
119.0000 40.6444
119.0500 30.0981
119.1000 28.0284
119.1500 35.6360
119.2000 25.0846
119.2500 23.2277
119.3000 21.2976
119.3500 31.6524
119.4000 27.6052
119.4500 39.7324
119.5000 35.8160
119.5500 28.9240
119.6000 31.5289
119.6500 28.9187
119.7000 31.8396
119.7500 22.8136
119.8000 28.9867
119.8500 33.1922
119.9000 23.6246
119.9500 44.5842
120.0000 37.8575
120.0500 24.9369
120.1000 37.7512
120.1500 23.8383
120.2000 37.3258
120.2500 35.8243
120.3000 30.2172
120.3500 30.6231
120.4000 25.5098
120.4500 36.9976
120.5000 37.4552
120.5500 20.5609
120.6000 29.4365
120.6500 26.4433
120.7000 30.2442
120.7500 27.9370
120.8000 28.9910
120.8500 42.8763
120.9000 28.7089
120.9500 27.0948
121.0000 28.4451
121.0500 22.8795
121.1000 34.2606
121.1500 30.6978
121.2000 23.4896
121.2500 27.7160
121.3000 26.6127
121.3500 22.9172
121.4000 27.8404
121.4500 33.8673
121.5000 33.0062
121.5500 28.6754
121.6000 33.1085
121.6500 33.9210
121.7000 26.7345
121.7500 33.2277
121.8000 31.1433
121.8500 25.7577
121.9000 44.6650
121.9500 34.4544
122.0000 33.8784
122.0500 26.0528
122.1000 32.7461
122.1500 24.0649
122.2000 25.9704
122.2500 27.0686
122.3000 25.1073
122.3500 35.1953
122.4000 30.9943
122.4500 28.8580
122.5000 30.6448
122.5500 33.6831
122.6000 25.4269
122.6500 33.9032
122.7000 35.3838
122.7500 38.6765
122.8000 27.9577
122.8500 23.6337
122.9000 22.3149
122.9500 35.2220
123.0000 30.4593
123.0500 34.2388
123.1000 34.5217
123.1500 27.4353
123.2000 27.0817
123.2500 19.4602
123.3000 31.0258
123.3500 17.4849
123.4000 33.5692
123.4500 25.0121
123.5000 36.5604
123.5500 32.4469
123.6000 26.4106
123.6500 23.8169
123.7000 28.6767
123.7500 35.6875
123.8000 26.1245
123.8500 22.0184
123.9000 23.9048
123.9500 31.5256
124.0000 30.0109
124.0500 25.6503
124.1000 28.4763
124.1500 23.7122
124.2000 26.9288
124.2500 32.2082
124.3000 19.7137
124.3500 32.8682
124.4000 29.6077
124.4500 30.2717
124.5000 21.0134
124.5500 31.0069
124.6000 35.5662
124.6500 28.4822
124.7000 30.9712
124.7500 33.8048
124.8000 26.0788
124.8500 33.3507
124.9000 26.9380
124.9500 26.1449
125.0000 34.5576
125.0500 27.1215
125.1000 35.6403
125.1500 36.3005
125.2000 24.2629
125.2500 27.0240
125.3000 27.5726
125.3500 27.1482
125.4000 36.8987
125.4500 33.3344
125.5000 27.6978
125.5500 28.8572
125.6000 30.1799
125.6500 27.2540
125.7000 26.4823
125.7500 27.4867
125.8000 22.9199
125.8500 24.3917
125.9000 22.3470
125.9500 35.9908
126.0000 21.5182
126.0500 26.8499
126.1000 30.0474
126.1500 29.8101
126.2000 29.4207
126.2500 41.0767
126.3000 31.1562
126.3500 25.6994
126.4000 36.9139
126.4500 25.2426
126.5000 31.3589
126.5500 24.5700
126.6000 27.6147
126.6500 28.8195
126.7000 27.4069
126.7500 33.3777
126.8000 28.6500
126.8500 28.7481
126.9000 26.4935
126.9500 31.5603
127.0000 31.8737
127.0500 28.0314
127.1000 22.1837
127.1500 42.1340
127.2000 30.6111
127.2500 26.1634
127.3000 24.5182
127.3500 26.6610
127.4000 37.0568
127.4500 26.4838
127.5000 23.9597
127.5500 30.7983
127.6000 33.6046
127.6500 36.5874
127.7000 30.5127
127.7500 24.9475
127.8000 31.8959
127.8500 32.7566
127.9000 25.0721
127.9500 32.9454
128.0000 39.2259
128.0500 35.2694
128.1000 29.6819
128.1500 24.4829
128.2000 35.8892
128.2500 37.3187
128.3000 27.6133
128.3500 25.2042
128.4000 24.9024
128.4500 25.5615
128.5000 27.1154
128.5500 27.9196
128.6000 20.8272
128.6500 21.6100
128.7000 32.2077
128.7500 27.1147
128.8000 33.4916
128.8500 32.2042
128.9000 28.5780
128.9500 25.6321
129.0000 29.2736
129.0500 22.7210
129.1000 23.2695
129.1500 33.0412
129.2000 28.8886
129.2500 22.3860
129.3000 27.5431
129.3500 35.4504
129.4000 30.9000
129.4500 27.7193
129.5000 26.1754
129.5500 28.1257
129.6000 21.4336
129.6500 26.2563
129.7000 29.8713
129.7500 26.6039
129.8000 34.7462
129.8500 21.2438
129.9000 31.3772
129.9500 29.4093
130.0000 17.7597
