#Collected Data-195
#Intensity_unit=counts
#Attenuator_coefficient=1.000000
40.0000 71.8292
40.0100 76.0181
40.0200 83.0945
40.0300 73.3951
40.0400 78.0983
40.0500 58.7631
40.0600 66.1487
40.0700 72.1003
40.0800 66.9739
40.0900 59.8170
40.1000 64.1107
40.1100 71.4659
40.1200 64.7507
40.1300 65.9964
40.1400 74.3525
40.1500 55.8364
40.1600 73.9055
40.1700 76.5805
40.1800 70.1319
40.1900 82.7780
40.2000 75.7913
40.2100 62.4463
40.2200 71.4374
40.2300 78.9417
40.2400 81.4677
40.2500 63.3608
40.2600 70.6990
40.2700 62.7594
40.2800 73.4777
40.2900 70.7845
40.3000 62.9367
40.3100 79.1419
40.3200 68.3948
40.3300 58.2244
40.3400 61.5229
40.3500 76.0968
40.3600 68.7946
40.3700 76.5370
40.3800 72.4816
40.3900 52.0893
40.4000 70.9596
40.4100 56.3005
40.4200 64.6577
40.4300 74.9554
40.4400 63.2158
40.4500 75.6527
40.4600 77.1687
40.4700 77.1707
40.4800 64.1128
40.4900 68.6714
40.5000 69.1010
40.5100 67.8917
40.5200 78.1509
40.5300 69.0838
40.5400 74.0204
40.5500 77.1064
40.5600 70.1349
40.5700 50.6940
40.5800 62.0525
40.5900 66.4845
40.6000 64.7186
40.6100 70.6758
40.6200 70.7709
40.6300 69.4925
40.6400 68.6711
40.6500 67.4385
40.6600 57.6156
40.6700 79.1443
40.6800 63.3482
40.6900 56.4244
40.7000 71.6070
40.7100 79.5004
40.7200 69.5650
40.7300 74.8471
40.7400 76.4211
40.7500 81.6039
40.7600 70.5361
40.7700 73.1293
40.7800 74.7901
40.7900 63.9323
40.8000 63.6488
40.8100 80.4943
40.8200 64.4417
40.8300 63.0491
40.8400 85.0794
40.8500 60.8212
40.8600 70.0193
40.8700 74.8799
40.8800 79.1838
40.8900 75.5476
40.9000 66.1775
40.9100 57.1075
40.9200 73.6186
40.9300 61.8025
40.9400 65.3147
40.9500 73.0240
40.9600 74.3957
40.9700 63.2662
40.9800 59.1659
40.9900 76.8751
41.0000 73.9087
41.0100 84.9505
41.0200 70.2790
41.0300 68.8638
41.0400 67.5245
41.0500 74.3219
41.0600 78.9466
41.0700 65.2508
41.0800 70.4134
41.0900 66.6106
41.1000 74.1170
41.1100 65.7595
41.1200 69.5509
41.1300 65.8893
41.1400 66.7489
41.1500 77.3089
41.1600 67.5874
41.1700 61.1500
41.1800 69.1217
41.1900 75.2473
41.2000 65.6702
41.2100 50.6998
41.2200 58.1646
41.2300 63.9074
41.2400 68.1558
41.2500 73.4960
41.2600 69.6494
41.2700 69.1859
41.2800 61.3786
41.2900 69.2702
41.3000 66.2519
41.3100 66.5947
41.3200 64.1098
41.3300 76.6087
41.3400 68.6455
41.3500 62.7452
41.3600 75.7043
41.3700 74.4447
41.3800 71.8308
41.3900 59.7274
41.4000 67.9462
41.4100 69.2082
41.4200 66.9013
41.4300 64.0086
41.4400 67.7642
41.4500 66.7412
41.4600 72.4790
41.4700 80.1010
41.4800 73.7333
41.4900 82.6521
41.5000 75.0447
41.5100 88.1789
41.5200 66.2982
41.5300 73.2884
41.5400 74.4340
41.5500 78.0206
41.5600 73.4799
41.5700 70.7246
41.5800 73.1053
41.5900 79.1815
41.6000 77.0289
41.6100 72.0809
41.6200 64.9346
41.6300 71.1150
41.6400 83.8339
41.6500 58.5190
41.6600 66.2678
41.6700 66.3084
41.6800 64.3382
41.6900 67.2417
41.7000 73.3617
41.7100 59.2262
41.7200 65.1357
41.7300 70.1626
41.7400 77.9383
41.7500 67.4836
41.7600 79.3900
41.7700 73.5699
41.7800 67.2048
41.7900 67.8324
41.8000 78.6277
41.8100 63.2071
41.8200 65.2361
41.8300 55.4519
41.8400 62.0561
41.8500 60.9728
41.8600 74.1480
41.8700 56.4666
41.8800 53.7063
41.8900 70.0083
41.9000 55.2017
41.9100 72.1791
41.9200 71.3654
41.9300 75.3703
41.9400 77.6593
41.9500 47.0025
41.9600 61.6710
41.9700 70.8645
41.9800 56.9666
41.9900 67.7376
42.0000 71.1612
42.0100 70.0558
42.0200 57.9148
42.0300 76.4604
42.0400 60.9997
42.0500 72.7376
42.0600 81.0712
42.0700 56.9136
42.0800 49.3894
42.0900 53.8618
42.1000 64.3580
42.1100 65.6344
42.1200 77.4471
42.1300 65.6798
42.1400 59.8388
42.1500 62.1692
42.1600 61.4910
42.1700 67.0103
42.1800 57.1234
42.1900 59.2906
42.2000 65.5316
42.2100 65.7523
42.2200 50.6105
42.2300 62.3948
42.2400 76.7133
42.2500 53.4336
42.2600 67.0644
42.2700 77.8850
42.2800 76.4419
42.2900 68.1235
42.3000 61.8492
42.3100 59.2622
42.3200 71.1662
42.3300 66.3364
42.3400 51.1005
42.3500 62.9150
42.3600 78.9538
42.3700 55.4269
42.3800 76.0196
42.3900 68.6312
42.4000 68.7749
42.4100 67.9724
42.4200 65.2127
42.4300 73.7323
42.4400 72.1223
42.4500 80.7829
42.4600 69.9393
42.4700 56.2180
42.4800 75.3319
42.4900 60.6113
42.5000 74.0996
42.5100 62.4226
42.5200 56.7155
42.5300 75.0837
42.5400 69.5307
42.5500 65.7338
42.5600 58.4457
42.5700 71.3519
42.5800 67.1921
42.5900 71.9112
42.6000 57.6857
42.6100 73.0899
42.6200 61.9314
42.6300 64.6182
42.6400 66.7697
42.6500 62.5116
42.6600 64.7516
42.6700 62.6499
42.6800 73.7030
42.6900 87.6081
42.7000 54.9373
42.7100 64.8008
42.7200 66.2923
42.7300 74.2265
42.7400 62.7526
42.7500 56.5820
42.7600 62.7669
42.7700 63.7947
42.7800 58.6063
42.7900 47.8623
42.8000 59.1985
42.8100 68.5450
42.8200 73.5237
42.8300 70.6158
42.8400 81.1136
42.8500 68.5107
42.8600 68.7576
42.8700 71.2996
42.8800 50.8332
42.8900 59.5780
42.9000 76.5496
42.9100 74.9527
42.9200 59.0591
42.9300 72.7879
42.9400 67.4961
42.9500 77.4760
42.9600 68.6890
42.9700 74.2104
42.9800 67.1543
42.9900 77.6762
43.0000 62.9433
43.0100 61.4088
43.0200 56.2100
43.0300 58.7707
43.0400 66.1327
43.0500 57.1641
43.0600 62.4176
43.0700 80.7523
43.0800 61.1834
43.0900 82.0125
43.1000 72.9050
43.1100 67.2557
43.1200 44.1746
43.1300 50.8499
43.1400 56.8478
43.1500 67.9978
43.1600 50.9624
43.1700 66.0499
43.1800 71.3280
43.1900 66.6188
43.2000 61.9473
43.2100 78.0504
43.2200 60.3517
43.2300 79.6197
43.2400 66.5579
43.2500 58.8542
43.2600 67.5336
43.2700 63.4848
43.2800 68.6547
43.2900 67.5373
43.3000 55.0207
43.3100 60.6698
43.3200 71.7391
43.3300 63.6771
43.3400 82.6398
43.3500 61.5922
43.3600 56.2520
43.3700 65.1646
43.3800 82.3763
43.3900 73.9883
43.4000 69.3354
43.4100 63.6688
43.4200 80.2030
43.4300 65.1828
43.4400 72.8586
43.4500 80.9567
43.4600 62.2798
43.4700 78.1877
43.4800 79.3099
43.4900 78.4144
43.5000 66.4935
43.5100 63.9665
43.5200 84.0229
43.5300 65.3831
43.5400 68.5858
43.5500 67.2656
43.5600 58.6559
43.5700 70.6122
43.5800 59.9542
43.5900 67.0973
43.6000 68.3276
43.6100 66.8264
43.6200 67.6186
43.6300 71.1640
43.6400 74.4920
43.6500 72.5313
43.6600 66.0084
43.6700 88.1552
43.6800 75.7492
43.6900 72.2116
43.7000 72.4515
43.7100 73.6960
43.7200 83.6128
43.7300 65.8386
43.7400 79.6340
43.7500 68.2012
43.7600 74.7139
43.7700 70.8379
43.7800 75.9044
43.7900 75.2467
43.8000 72.8102
43.8100 86.1292
43.8200 70.5305
43.8300 65.7258
43.8400 87.4179
43.8500 81.7294
43.8600 78.9621
43.8700 83.6937
43.8800 91.0147
43.8900 68.7521
43.9000 97.9200
43.9100 77.6446
43.9200 95.4951
43.9300 87.3090
43.9400 81.5621
43.9500 73.0430
43.9600 75.9305
43.9700 86.8971
43.9800 98.9347
43.9900 105.9442
44.0000 76.6130
44.0100 77.7311
44.0200 88.0901
44.0300 91.7147
44.0400 108.1555
44.0500 106.9675
44.0600 86.5235
44.0700 97.3131
44.0800 91.0439
44.0900 108.3354
44.1000 115.7646
44.1100 113.5493
44.1200 135.5034
44.1300 134.1424
44.1400 111.9385
44.1500 134.0478
44.1600 107.9011
44.1700 130.2194
44.1800 148.6157
44.1900 152.2836
44.2000 172.2226
44.2100 142.0823
44.2200 153.0992
44.2300 185.5802
44.2400 191.8256
44.2500 173.8154
44.2600 202.9350
44.2700 196.8488
44.2800 208.8840
44.2900 243.0786
44.3000 241.5020
44.3100 265.0227
44.3200 325.1037
44.3300 348.9751
44.3400 367.2670
44.3500 393.7633
44.3600 428.1622
44.3700 519.7112
44.3800 596.1872
44.3900 697.2921
44.4000 794.9427
44.4100 942.1357
44.4200 1136.4357
44.4300 1326.4535
44.4400 1667.6809
44.4500 1981.5920
44.4600 2425.7983
44.4700 2877.0479
44.4800 3309.7886
44.4900 3733.8601
44.5000 4208.3130
44.5100 4541.3125
44.5200 4886.6675
44.5300 5044.1353
44.5400 5148.5815
44.5500 5036.7568
44.5600 5063.4966
44.5700 4873.3350
44.5800 4626.8701
44.5900 4183.6509
44.6000 4066.1545
44.6100 3658.3857
44.6200 3194.8025
44.6300 2720.8425
44.6400 2394.4834
44.6500 1986.2219
44.6600 1612.8944
44.6700 1338.4188
44.6800 1054.1979
44.6900 896.8477
44.7000 728.0713
44.7100 648.4246
44.7200 512.7790
44.7300 464.3906
44.7400 407.1873
44.7500 364.8890
44.7600 321.7618
44.7700 292.8302
44.7800 261.2013
44.7900 226.6640
44.8000 213.5923
44.8100 186.2413
44.8200 221.1936
44.8300 190.1963
44.8400 169.1023
44.8500 161.2367
44.8600 135.6543
44.8700 137.6919
44.8800 151.4876
44.8900 131.3575
44.9000 108.4025
44.9100 106.1596
44.9200 113.7473
44.9300 119.1700
44.9400 124.7563
44.9500 121.6142
44.9600 111.3756
44.9700 98.7137
44.9800 99.8278
44.9900 90.7931
45.0000 99.0646
45.0100 94.4057
45.0200 90.5144
45.0300 95.9922
45.0400 87.3671
45.0500 99.2006
45.0600 91.6234
45.0700 83.1693
45.0800 85.6191
45.0900 81.7799
45.1000 74.3246
45.1100 83.5676
45.1200 73.9574
45.1300 79.2887
45.1400 80.8726
45.1500 95.1947
45.1600 83.1338
45.1700 65.2976
45.1800 61.9001
45.1900 68.6893
45.2000 67.1445
45.2100 69.0169
45.2200 72.3187
45.2300 84.6902
45.2400 72.7780
45.2500 62.1695
45.2600 86.7582
45.2700 75.5359
45.2800 78.8920
45.2900 78.7020
45.3000 67.2842
45.3100 75.3617
45.3200 90.0760
45.3300 61.6669
45.3400 67.9567
45.3500 70.2261
45.3600 67.3224
45.3700 63.9057
45.3800 70.7753
45.3900 69.9772
45.4000 77.3465
45.4100 66.1096
45.4200 77.2581
45.4300 71.4464
45.4400 82.3688
45.4500 61.2567
45.4600 78.0624
45.4700 62.0789
45.4800 65.5710
45.4900 77.2163
45.5000 74.0282
45.5100 57.7355
45.5200 49.5741
45.5300 58.4537
45.5400 59.1973
45.5500 59.9981
45.5600 64.8324
45.5700 60.5144
45.5800 70.5393
45.5900 64.2325
45.6000 61.0758
45.6100 75.4506
45.6200 66.8586
45.6300 65.8440
45.6400 71.2001
45.6500 54.7170
45.6600 59.3498
45.6700 47.0781
45.6800 65.9916
45.6900 56.7119
45.7000 59.8221
45.7100 72.5554
45.7200 55.6723
45.7300 72.6624
45.7400 61.7909
45.7500 65.5952
45.7600 72.3868
45.7700 66.3979
45.7800 65.8856
45.7900 62.4635
45.8000 59.5475
45.8100 63.4595
45.8200 65.0407
45.8300 62.2477
45.8400 55.0798
45.8500 47.7354
45.8600 72.3477
45.8700 64.6416
45.8800 68.9971
45.8900 60.4046
45.9000 64.7851
45.9100 65.9714
45.9200 63.5547
45.9300 63.8350
45.9400 84.6229
45.9500 77.7183
45.9600 61.7262
45.9700 56.6101
45.9800 58.0434
45.9900 55.3306
46.0000 63.7866
46.0100 59.6656
46.0200 70.4156
46.0300 74.6514
46.0400 66.4110
46.0500 68.5372
46.0600 72.3445
46.0700 62.8910
46.0800 59.5121
46.0900 63.6465
46.1000 55.5523
46.1100 67.9806
46.1200 74.6286
46.1300 58.9809
46.1400 55.6242
46.1500 67.8605
46.1600 67.9109
46.1700 71.4975
46.1800 56.2521
46.1900 60.4294
46.2000 75.6250
46.2100 62.7404
46.2200 63.2731
46.2300 56.4859
46.2400 62.3669
46.2500 72.5739
46.2600 71.2088
46.2700 78.9671
46.2800 65.6814
46.2900 70.9114
46.3000 56.2010
46.3100 75.8397
46.3200 62.8982
46.3300 56.2958
46.3400 60.2741
46.3500 69.3247
46.3600 68.1089
46.3700 57.4459
46.3800 81.4980
46.3900 72.5705
46.4000 67.1370
46.4100 62.9515
46.4200 50.4305
46.4300 56.9688
46.4400 61.5221
46.4500 60.1870
46.4600 61.8202
46.4700 63.7035
46.4800 68.7656
46.4900 62.2261
46.5000 65.7752
46.5100 62.5261
46.5200 61.9622
46.5300 57.7650
46.5400 60.3393
46.5500 67.4710
46.5600 61.7543
46.5700 68.7265
46.5800 63.6137
46.5900 61.0878
46.6000 65.6588
46.6100 60.7485
46.6200 63.7087
46.6300 70.1902
46.6400 64.3699
46.6500 62.8334
46.6600 48.0183
46.6700 65.1230
46.6800 53.7911
46.6900 69.2392
46.7000 55.1890
46.7100 65.4240
46.7200 66.4736
46.7300 65.7652
46.7400 63.3815
46.7500 54.7574
46.7600 52.2559
46.7700 56.2990
46.7800 59.7726
46.7900 68.2583
46.8000 67.8687
46.8100 62.1414
46.8200 62.1079
46.8300 69.1670
46.8400 53.4683
46.8500 55.0232
46.8600 61.2963
46.8700 74.6172
46.8800 59.3653
46.8900 59.3203
46.9000 51.8325
46.9100 59.7908
46.9200 74.1128
46.9300 75.2017
46.9400 72.5011
46.9500 70.6917
46.9600 55.8708
46.9700 74.9661
46.9800 81.5505
46.9900 64.1279
47.0000 62.2689
47.0100 66.8763
47.0200 63.3504
47.0300 43.9274
47.0400 57.2768
47.0500 49.3717
47.0600 60.2014
47.0700 53.6577
47.0800 57.5149
47.0900 62.3715
47.1000 50.6148
47.1100 72.8903
47.1200 63.4972
47.1300 60.1391
47.1400 56.9934
47.1500 57.1202
47.1600 67.8886
47.1700 61.3203
47.1800 66.5960
47.1900 53.2356
47.2000 51.4437
47.2100 64.0843
47.2200 57.1112
47.2300 58.7346
47.2400 61.0183
47.2500 57.4110
47.2600 65.4712
47.2700 61.8067
47.2800 60.6348
47.2900 60.2521
47.3000 58.2183
47.3100 63.9232
47.3200 57.9502
47.3300 61.3889
47.3400 64.2082
47.3500 67.8264
47.3600 69.9791
47.3700 57.2566
47.3800 55.0016
47.3900 72.1327
47.4000 65.9862
47.4100 48.2332
47.4200 65.7296
47.4300 68.1927
47.4400 68.6709
47.4500 69.2414
47.4600 59.7306
47.4700 57.0222
47.4800 62.0582
47.4900 70.3793
47.5000 62.1108
47.5100 58.8693
47.5200 51.4524
47.5300 55.0430
47.5400 59.6530
47.5500 58.9711
47.5600 66.9444
47.5700 50.3520
47.5800 66.1521
47.5900 66.6018
47.6000 55.7862
47.6100 56.4837
47.6200 53.0457
47.6300 56.8000
47.6400 62.3689
47.6500 64.1335
47.6600 66.9471
47.6700 68.6289
47.6800 76.4418
47.6900 49.7777
47.7000 62.7217
47.7100 58.5430
47.7200 69.4778
47.7300 62.2307
47.7400 60.4387
47.7500 68.5230
47.7600 53.8393
47.7700 53.7721
47.7800 58.5450
47.7900 57.8055
47.8000 50.8908
47.8100 60.3744
47.8200 56.4494
47.8300 49.6905
47.8400 57.2645
47.8500 65.9926
47.8600 50.1032
47.8700 69.7942
47.8800 61.4395
47.8900 45.7171
47.9000 62.5894
47.9100 58.6266
47.9200 57.8427
47.9300 68.3974
47.9400 66.3126
47.9500 53.7395
47.9600 52.7299
47.9700 59.5085
47.9800 57.9626
47.9900 58.3285
48.0000 50.4610
48.0100 63.0271
48.0200 60.0876
48.0300 58.1899
48.0400 64.0685
48.0500 55.9252
48.0600 51.0776
48.0700 67.4524
48.0800 57.2980
48.0900 57.8031
48.1000 58.0194
48.1100 72.3209
48.1200 65.3463
48.1300 62.4835
48.1400 65.2398
48.1500 54.7346
48.1600 58.6869
48.1700 65.2886
48.1800 56.5610
48.1900 50.9289
48.2000 64.0909
48.2100 57.8397
48.2200 63.9489
48.2300 58.5821
48.2400 60.3238
48.2500 59.5145
48.2600 54.6974
48.2700 60.1706
48.2800 63.8481
48.2900 50.6937
48.3000 52.3055
48.3100 67.6462
48.3200 69.4227
48.3300 52.2476
48.3400 60.9737
48.3500 51.3798
48.3600 63.3187
48.3700 70.0181
48.3800 56.4365
48.3900 69.4535
48.4000 61.3990
48.4100 73.2806
48.4200 61.4142
48.4300 62.6102
48.4400 56.3534
48.4500 56.8383
48.4600 48.9551
48.4700 48.7324
48.4800 58.1742
48.4900 51.1456
48.5000 60.5145
48.5100 57.0856
48.5200 65.1265
48.5300 70.2217
48.5400 69.7149
48.5500 58.6468
48.5600 62.4294
48.5700 55.8191
48.5800 65.7981
48.5900 69.0606
48.6000 59.0257
48.6100 51.3210
48.6200 61.0219
48.6300 56.7231
48.6400 65.4405
48.6500 64.6015
48.6600 56.7673
48.6700 55.9073
48.6800 62.2106
48.6900 57.4205
48.7000 61.2893
48.7100 61.6100
48.7200 69.6584
48.7300 52.4120
48.7400 70.2550
48.7500 55.4461
48.7600 66.5375
48.7700 61.8501
48.7800 71.1703
48.7900 54.8456
48.8000 64.7541
48.8100 60.0548
48.8200 58.0656
48.8300 67.8026
48.8400 46.8168
48.8500 46.3006
48.8600 61.4718
48.8700 68.2689
48.8800 52.9255
48.8900 55.8282
48.9000 62.8269
48.9100 70.1602
48.9200 69.5819
48.9300 57.3886
48.9400 53.4798
48.9500 67.1177
48.9600 52.1965
48.9700 54.6730
48.9800 56.4105
48.9900 57.2260
49.0000 66.0102
49.0100 43.2032
49.0200 56.6819
49.0300 61.3803
49.0400 60.2876
49.0500 63.5564
49.0600 62.4928
49.0700 59.3987
49.0800 72.1243
49.0900 63.5791
49.1000 59.3608
49.1100 66.6605
49.1200 62.2522
49.1300 62.5587
49.1400 61.6110
49.1500 58.9506
49.1600 54.7565
49.1700 67.4481
49.1800 55.3382
49.1900 57.1335
49.2000 56.8105
49.2100 68.6009
49.2200 75.8916
49.2300 62.0752
49.2400 69.7126
49.2500 57.2714
49.2600 63.5972
49.2700 63.4139
49.2800 50.2747
49.2900 63.2014
49.3000 55.0962
49.3100 62.3449
49.3200 60.4746
49.3300 58.2341
49.3400 56.3086
49.3500 54.2326
49.3600 69.5704
49.3700 67.4502
49.3800 84.6776
49.3900 62.9955
49.4000 47.8022
49.4100 59.7423
49.4200 63.9477
49.4300 65.3725
49.4400 65.6579
49.4500 69.2845
49.4600 63.8092
49.4700 48.1506
49.4800 50.9314
49.4900 62.9248
49.5000 59.7234
49.5100 56.8321
49.5200 61.0169
49.5300 42.7527
49.5400 59.3395
49.5500 45.7971
49.5600 58.3735
49.5700 72.2163
49.5800 66.8522
49.5900 53.7998
49.6000 58.7279
49.6100 53.8005
49.6200 48.1382
49.6300 59.7687
49.6400 61.4164
49.6500 49.8178
49.6600 57.9018
49.6700 49.9249
49.6800 61.1605
49.6900 76.6851
49.7000 67.5487
49.7100 64.7202
49.7200 61.3443
49.7300 60.4993
49.7400 57.8192
49.7500 52.0233
49.7600 46.4405
49.7700 55.4765
49.7800 70.1139
49.7900 70.9006
49.8000 61.4578
49.8100 57.9033
49.8200 59.6945
49.8300 50.9411
49.8400 60.5054
49.8500 59.2568
49.8600 60.3591
49.8700 52.8398
49.8800 62.1038
49.8900 69.1286
49.9000 49.9636
49.9100 51.5653
49.9200 54.4543
49.9300 78.4735
49.9400 68.0637
49.9500 59.9987
49.9600 49.7982
49.9700 41.9027
49.9800 55.7127
49.9900 52.6316
50.0000 55.0793
50.0100 44.1512
50.0200 57.6813
50.0300 68.1105
50.0400 51.2546
50.0500 49.1481
50.0600 59.3972
50.0700 67.5754
50.0800 51.5234
50.0900 38.3914
50.1000 76.5672
50.1100 76.1659
50.1200 54.9629
50.1300 61.1465
50.1400 58.9877
50.1500 67.9164
50.1600 49.3791
50.1700 64.6508
50.1800 56.1122
50.1900 68.3023
50.2000 73.0109
50.2100 59.3714
50.2200 56.5933
50.2300 56.4357
50.2400 61.5256
50.2500 64.8944
50.2600 61.4781
50.2700 55.4570
50.2800 63.1316
50.2900 62.6569
50.3000 58.0436
50.3100 54.8402
50.3200 71.1323
50.3300 62.6660
50.3400 74.1876
50.3500 58.2802
50.3600 57.8056
50.3700 60.2092
50.3800 60.0255
50.3900 60.5379
50.4000 60.0191
50.4100 57.9991
50.4200 55.2835
50.4300 59.4544
50.4400 60.5997
50.4500 62.8077
50.4600 59.5756
50.4700 56.2578
50.4800 58.9040
50.4900 47.4133
50.5000 57.0789
50.5100 48.9375
50.5200 56.3247
50.5300 58.5443
50.5400 57.7877
50.5500 52.7422
50.5600 47.0089
50.5700 67.0466
50.5800 48.7966
50.5900 52.8680
50.6000 63.7978
50.6100 84.2774
50.6200 59.4175
50.6300 54.9618
50.6400 68.3784
50.6500 53.0431
50.6600 57.5237
50.6700 57.6127
50.6800 58.3288
50.6900 56.8270
50.7000 66.1695
50.7100 66.6894
50.7200 50.5164
50.7300 65.3748
50.7400 56.7938
50.7500 62.3832
50.7600 63.4078
50.7700 61.1323
50.7800 70.6279
50.7900 59.0046
50.8000 61.5887
50.8100 67.2013
50.8200 71.3967
50.8300 75.2249
50.8400 77.5888
50.8500 56.3565
50.8600 77.9407
50.8700 54.0365
50.8800 58.7215
50.8900 48.7352
50.9000 62.5296
50.9100 51.8440
50.9200 60.2950
50.9300 55.0171
50.9400 59.9934
50.9500 56.0008
50.9600 52.1749
50.9700 59.3840
50.9800 51.4644
50.9900 48.1570
51.0000 64.0019
51.0100 75.2510
51.0200 77.3487
51.0300 63.0024
51.0400 55.9315
51.0500 49.4945
51.0600 58.0072
51.0700 54.5611
51.0800 66.5721
51.0900 62.2800
51.1000 66.9118
51.1100 58.5897
51.1200 66.8823
51.1300 55.3659
51.1400 45.5763
51.1500 55.4513
51.1600 61.5925
51.1700 67.6743
51.1800 57.3765
51.1900 46.5368
51.2000 64.2043
51.2100 63.7347
51.2200 58.2630
51.2300 60.2552
51.2400 57.3413
51.2500 53.8027
51.2600 59.3325
51.2700 58.5822
51.2800 60.7121
51.2900 47.3643
51.3000 71.2659
51.3100 52.3575
51.3200 52.1252
51.3300 56.1428
51.3400 56.0676
51.3500 67.4357
51.3600 44.4363
51.3700 57.5193
51.3800 65.3729
51.3900 61.4884
51.4000 65.5957
51.4100 48.3238
51.4200 53.0596
51.4300 46.7386
51.4400 53.3940
51.4500 63.5267
51.4600 56.3699
51.4700 52.4032
51.4800 59.2975
51.4900 51.0291
51.5000 56.2201
51.5100 56.2556
51.5200 61.4061
51.5300 56.2190
51.5400 71.6249
51.5500 51.9125
51.5600 60.1893
51.5700 52.6072
51.5800 65.9829
51.5900 47.0906
51.6000 78.5099
51.6100 61.4963
51.6200 67.9093
51.6300 55.7356
51.6400 58.8707
51.6500 71.4604
51.6600 65.0627
51.6700 57.8506
51.6800 66.0222
51.6900 56.7228
51.7000 64.2715
51.7100 61.2618
51.7200 70.4229
51.7300 62.3711
51.7400 61.7520
51.7500 69.3897
51.7600 57.9737
51.7700 70.2254
51.7800 54.6211
51.7900 57.1678
51.8000 55.2637
51.8100 52.3220
51.8200 63.6248
51.8300 51.2278
51.8400 61.2766
51.8500 57.6476
51.8600 61.4112
51.8700 54.1385
51.8800 59.0943
51.8900 63.1338
51.9000 54.8408
51.9100 54.4361
51.9200 67.3058
51.9300 69.4421
51.9400 65.4694
51.9500 52.9163
51.9600 53.0734
51.9700 56.0521
51.9800 60.5759
51.9900 50.5110
52.0000 51.3739
52.0100 58.3587
52.0200 54.9386
52.0300 46.9456
52.0400 41.5273
52.0500 47.5706
52.0600 51.2463
52.0700 59.9397
52.0800 53.7266
52.0900 53.1491
52.1000 57.6279
52.1100 58.5006
52.1200 46.7962
52.1300 68.4989
52.1400 68.7711
52.1500 57.1878
52.1600 73.3854
52.1700 64.8585
52.1800 65.5859
52.1900 57.4548
52.2000 59.1452
52.2100 51.9947
52.2200 56.7048
52.2300 63.3681
52.2400 56.1434
52.2500 61.6104
52.2600 70.6740
52.2700 59.0890
52.2800 53.3296
52.2900 60.3018
52.3000 58.2226
52.3100 46.6162
52.3200 48.7052
52.3300 68.1063
52.3400 60.8881
52.3500 51.3130
52.3600 54.4296
52.3700 43.1914
52.3800 55.6108
52.3900 60.9880
52.4000 56.3925
52.4100 47.7873
52.4200 52.8164
52.4300 62.2023
52.4400 57.1886
52.4500 51.9823
52.4600 56.4218
52.4700 47.0107
52.4800 51.0957
52.4900 58.7703
52.5000 52.4027
52.5100 50.8150
52.5200 47.5218
52.5300 46.7606
52.5400 45.6858
52.5500 58.7661
52.5600 70.5111
52.5700 67.3270
52.5800 70.4776
52.5900 48.0096
52.6000 51.3130
52.6100 51.5291
52.6200 58.6391
52.6300 58.4201
52.6400 54.8940
52.6500 61.4050
52.6600 57.3849
52.6700 59.6647
52.6800 67.2692
52.6900 69.1287
52.7000 57.7898
52.7100 61.7205
52.7200 61.5586
52.7300 57.6003
52.7400 50.7935
52.7500 68.0241
52.7600 40.9637
52.7700 58.8476
52.7800 63.0449
52.7900 59.0836
52.8000 67.3643
52.8100 54.3424
52.8200 61.4968
52.8300 63.7976
52.8400 75.2659
52.8500 53.3410
52.8600 63.2743
52.8700 64.5235
52.8800 62.0467
52.8900 63.5299
52.9000 63.5642
52.9100 65.8400
52.9200 60.0389
52.9300 72.1693
52.9400 60.0256
52.9500 62.0272
52.9600 79.6910
52.9700 57.7310
52.9800 52.9872
52.9900 53.2840
53.0000 54.2554
53.0100 63.0096
53.0200 63.7380
53.0300 58.2085
53.0400 53.2015
53.0500 56.4508
53.0600 52.7702
53.0700 35.6853
53.0800 48.7895
53.0900 43.5804
53.1000 54.1299
53.1100 50.1488
53.1200 43.8330
53.1300 52.2116
53.1400 56.9287
53.1500 60.1435
53.1600 54.7996
53.1700 62.4866
53.1800 50.9948
53.1900 42.6117
53.2000 54.3315
53.2100 47.1471
53.2200 57.2239
53.2300 66.9474
53.2400 58.2714
53.2500 55.6395
53.2600 58.3654
53.2700 60.2184
53.2800 51.9182
53.2900 45.9022
53.3000 54.0885
53.3100 67.4054
53.3200 52.8892
53.3300 53.4245
53.3400 66.5437
53.3500 70.2270
53.3600 68.7975
53.3700 50.6626
53.3800 45.2963
53.3900 58.1245
53.4000 56.2615
53.4100 58.2812
53.4200 59.7614
53.4300 55.5502
53.4400 50.9983
53.4500 53.4055
53.4600 62.4175
53.4700 54.6962
53.4800 62.7082
53.4900 57.1997
53.5000 52.7687
53.5100 59.8059
53.5200 62.6416
53.5300 57.2201
53.5400 65.2204
53.5500 56.8123
53.5600 51.9480
53.5700 61.3559
53.5800 71.6427
53.5900 56.0105
53.6000 54.3210
53.6100 61.5250
53.6200 64.1940
53.6300 42.2491
53.6400 58.2672
53.6500 54.3095
53.6600 58.0255
53.6700 46.2730
53.6800 54.9196
53.6900 46.8816
53.7000 54.8817
53.7100 56.9427
53.7200 59.0550
53.7300 76.4494
53.7400 45.7365
53.7500 68.4727
53.7600 51.6883
53.7700 54.1372
53.7800 57.1017
53.7900 61.7835
53.8000 54.3660
53.8100 50.6479
53.8200 53.6609
53.8300 54.8509
53.8400 48.4536
53.8500 73.6037
53.8600 63.9212
53.8700 52.4064
53.8800 59.0075
53.8900 50.8277
53.9000 41.0625
53.9100 43.4103
53.9200 62.9879
53.9300 52.1895
53.9400 54.4707
53.9500 50.9541
53.9600 53.7544
53.9700 44.0590
53.9800 54.2719
53.9900 66.9398
54.0000 50.6204
54.0100 57.3040
54.0200 67.5690
54.0300 57.3612
54.0400 60.6621
54.0500 63.8109
54.0600 50.4731
54.0700 46.2523
54.0800 47.7735
54.0900 52.6437
54.1000 55.1074
54.1100 56.1154
54.1200 45.5438
54.1300 39.6669
54.1400 58.4679
54.1500 53.2013
54.1600 55.6233
54.1700 59.5433
54.1800 45.2940
54.1900 59.4697
54.2000 53.9819
54.2100 62.2546
54.2200 61.0346
54.2300 55.1781
54.2400 60.3168
54.2500 48.1971
54.2600 62.2771
54.2700 61.4970
54.2800 48.2841
54.2900 54.4896
54.3000 56.9944
54.3100 58.9543
54.3200 56.9150
54.3300 59.6995
54.3400 48.9972
54.3500 60.6357
54.3600 62.6073
54.3700 60.5763
54.3800 57.4059
54.3900 43.3098
54.4000 58.8192
54.4100 63.3434
54.4200 60.7600
54.4300 67.2325
54.4400 62.2345
54.4500 61.1151
54.4600 51.3491
54.4700 47.6042
54.4800 62.4367
54.4900 59.3561
54.5000 61.8449
54.5100 52.8634
54.5200 63.5530
54.5300 60.0018
54.5400 56.7447
54.5500 52.0733
54.5600 46.3031
54.5700 59.1383
54.5800 47.5213
54.5900 46.3339
54.6000 60.1434
54.6100 43.6118
54.6200 47.0493
54.6300 56.9297
54.6400 54.9781
54.6500 59.7342
54.6600 35.7319
54.6700 60.9825
54.6800 55.8850
54.6900 66.4815
54.7000 46.0026
54.7100 54.3143
54.7200 49.6403
54.7300 54.2851
54.7400 49.5384
54.7500 59.3529
54.7600 49.3651
54.7700 61.1592
54.7800 46.1920
54.7900 55.5899
54.8000 53.2391
54.8100 59.7501
54.8200 52.9735
54.8300 61.0101
54.8400 59.6905
54.8500 55.5055
54.8600 66.8393
54.8700 62.2964
54.8800 52.3789
54.8900 54.9992
54.9000 48.8184
54.9100 52.0440
54.9200 55.9243
54.9300 60.7804
54.9400 61.1665
54.9500 64.3046
54.9600 55.8052
54.9700 58.5319
54.9800 46.1725
54.9900 57.7555
55.0000 57.2289
55.0100 38.2209
55.0200 52.3017
55.0300 56.3022
55.0400 74.5149
55.0500 62.3083
55.0600 58.4887
55.0700 41.9624
55.0800 59.1254
55.0900 61.5408
55.1000 48.9355
55.1100 47.3174
55.1200 66.1845
55.1300 53.7337
55.1400 58.3069
55.1500 68.9993
55.1600 38.8344
55.1700 67.0046
55.1800 70.7329
55.1900 67.6249
55.2000 66.2865
55.2100 40.1931
55.2200 62.9851
55.2300 61.0878
55.2400 63.9974
55.2500 60.1236
55.2600 63.9132
55.2700 41.6136
55.2800 49.0480
55.2900 58.9398
55.3000 62.8158
55.3100 66.3380
55.3200 64.6377
55.3300 55.5906
55.3400 49.9047
55.3500 60.5306
55.3600 58.6309
55.3700 61.8171
55.3800 60.2058
55.3900 64.1026
55.4000 50.3917
55.4100 65.7761
55.4200 57.5807
55.4300 55.7566
55.4400 61.4316
55.4500 58.2112
55.4600 68.3959
55.4700 50.0491
55.4800 55.1416
55.4900 54.9277
55.5000 61.0611
55.5100 48.0904
55.5200 55.5980
55.5300 57.9739
55.5400 55.6985
55.5500 47.3889
55.5600 48.8496
55.5700 54.8281
55.5800 61.9750
55.5900 71.2343
55.6000 65.7032
55.6100 60.5211
55.6200 40.4159
55.6300 58.9127
55.6400 61.6605
55.6500 48.7801
55.6600 54.9969
55.6700 51.4996
55.6800 51.5552
55.6900 47.7385
55.7000 57.3806
55.7100 60.4873
55.7200 49.9362
55.7300 56.2123
55.7400 65.8943
55.7500 65.3573
55.7600 66.0747
55.7700 77.2230
55.7800 45.5175
55.7900 55.1617
55.8000 49.8854
55.8100 50.5466
55.8200 50.3238
55.8300 58.6727
55.8400 53.0479
55.8500 60.9487
55.8600 68.3287
55.8700 51.8615
55.8800 59.7989
55.8900 58.5758
55.9000 54.9608
55.9100 57.1892
55.9200 69.9609
55.9300 53.6937
55.9400 54.7518
55.9500 51.1142
55.9600 66.4813
55.9700 55.7024
55.9800 62.3112
55.9900 61.7123
56.0000 59.7016
56.0100 51.5937
56.0200 60.1210
56.0300 71.8890
56.0400 52.3938
56.0500 77.7180
56.0600 57.0327
56.0700 61.6658
56.0800 47.2627
56.0900 55.9488
56.1000 55.8311
56.1100 54.4340
56.1200 57.5840
56.1300 53.6282
56.1400 44.4217
56.1500 54.5896
56.1600 64.7959
56.1700 55.2913
56.1800 53.4492
56.1900 59.9512
56.2000 54.3669
56.2100 57.2878
56.2200 61.4943
56.2300 64.4602
56.2400 64.9253
56.2500 53.0379
56.2600 50.7073
56.2700 57.4907
56.2800 59.0253
56.2900 49.2248
56.3000 55.9320
56.3100 50.3116
56.3200 54.6081
56.3300 55.8499
56.3400 50.0994
56.3500 59.5740
56.3600 65.4508
56.3700 59.8711
56.3800 55.9229
56.3900 57.1338
56.4000 52.6631
56.4100 54.5360
56.4200 43.0058
56.4300 61.9039
56.4400 62.8756
56.4500 59.0431
56.4600 59.8232
56.4700 69.0393
56.4800 51.7369
56.4900 55.9906
56.5000 61.3177
56.5100 65.4671
56.5200 55.3917
56.5300 64.0278
56.5400 62.8153
56.5500 44.1547
56.5600 49.5010
56.5700 57.8943
56.5800 54.6209
56.5900 50.9234
56.6000 76.8456
56.6100 61.6392
56.6200 58.1579
56.6300 59.4944
56.6400 58.5273
56.6500 76.3098
56.6600 63.4074
56.6700 58.8558
56.6800 51.8269
56.6900 56.5034
56.7000 64.2990
56.7100 49.7605
56.7200 54.3193
56.7300 63.0715
56.7400 62.0407
56.7500 51.3189
56.7600 56.4531
56.7700 49.6569
56.7800 49.1170
56.7900 53.3910
56.8000 57.6904
56.8100 64.7929
56.8200 62.4023
56.8300 63.2102
56.8400 47.5607
56.8500 44.9866
56.8600 58.5466
56.8700 57.2692
56.8800 69.5289
56.8900 45.9721
56.9000 60.6185
56.9100 62.6421
56.9200 51.4143
56.9300 55.5911
56.9400 61.4639
56.9500 54.8812
56.9600 56.5947
56.9700 57.9767
56.9800 53.5112
56.9900 63.9827
57.0000 49.1815
57.0100 59.1407
57.0200 54.6729
57.0300 57.8311
57.0400 59.3579
57.0500 60.8094
57.0600 44.3933
57.0700 53.5350
57.0800 56.7701
57.0900 52.6810
57.1000 68.4270
57.1100 55.3889
57.1200 46.1888
57.1300 44.5917
57.1400 60.1449
57.1500 56.8553
57.1600 53.5432
57.1700 56.3363
57.1800 63.1849
57.1900 60.3866
57.2000 61.4854
57.2100 65.3615
57.2200 49.5189
57.2300 62.6795
57.2400 58.0750
57.2500 56.0624
57.2600 59.9892
57.2700 46.7153
57.2800 39.7333
57.2900 51.7151
57.3000 58.5583
57.3100 66.0226
57.3200 45.9228
57.3300 64.2399
57.3400 54.7577
57.3500 66.0476
57.3600 65.7572
57.3700 58.4037
57.3800 54.3389
57.3900 59.1801
57.4000 65.2125
57.4100 59.2389
57.4200 63.1631
57.4300 63.8586
57.4400 57.9154
57.4500 53.3646
57.4600 59.2166
57.4700 55.5909
57.4800 53.8790
57.4900 57.5113
57.5000 69.0900
57.5100 61.7273
57.5200 54.9599
57.5300 54.1423
57.5400 66.9202
57.5500 49.2484
57.5600 54.6980
57.5700 49.4807
57.5800 64.9574
57.5900 55.4009
57.6000 58.4391
57.6100 50.7696
57.6200 58.7630
57.6300 44.8330
57.6400 61.7732
57.6500 60.8319
57.6600 56.7955
57.6700 56.6953
57.6800 46.3251
57.6900 56.0318
57.7000 57.8758
57.7100 61.2806
57.7200 57.7429
57.7300 50.5022
57.7400 62.5072
57.7500 71.8468
57.7600 44.0580
57.7700 62.5960
57.7800 54.1607
57.7900 48.6903
57.8000 59.1022
57.8100 51.5915
57.8200 54.4801
57.8300 49.0776
57.8400 57.3467
57.8500 70.3140
57.8600 51.4193
57.8700 58.6895
57.8800 60.9526
57.8900 52.0526
57.9000 51.0211
57.9100 57.8034
57.9200 50.0101
57.9300 57.3821
57.9400 48.9270
57.9500 48.1405
57.9600 57.7655
57.9700 62.0179
57.9800 55.9462
57.9900 55.3943
58.0000 55.1898
58.0100 63.7608
58.0200 53.7603
58.0300 49.4151
58.0400 45.7818
58.0500 53.6026
58.0600 65.9978
58.0700 54.7720
58.0800 64.6230
58.0900 45.1449
58.1000 46.6170
58.1100 61.6624
58.1200 56.1236
58.1300 50.6045
58.1400 44.6724
58.1500 54.2773
58.1600 58.3130
58.1700 59.7850
58.1800 55.2243
58.1900 47.3007
58.2000 60.6210
58.2100 63.0747
58.2200 52.9377
58.2300 58.2188
58.2400 52.9854
58.2500 63.3526
58.2600 48.9725
58.2700 43.0484
58.2800 55.6847
58.2900 62.4746
58.3000 66.1468
58.3100 49.1968
58.3200 63.0619
58.3300 63.0644
58.3400 53.9962
58.3500 60.4452
58.3600 58.9654
58.3700 51.5921
58.3800 45.8081
58.3900 50.6750
58.4000 60.4818
58.4100 65.0718
58.4200 50.3974
58.4300 59.0634
58.4400 59.7856
58.4500 51.6439
58.4600 50.7961
58.4700 57.4602
58.4800 61.8100
58.4900 60.6204
58.5000 49.7103
58.5100 46.8154
58.5200 50.1782
58.5300 64.0046
58.5400 67.9730
58.5500 49.4160
58.5600 48.8716
58.5700 47.5930
58.5800 57.3293
58.5900 46.5751
58.6000 63.1830
58.6100 50.8066
58.6200 60.1880
58.6300 56.5457
58.6400 52.1817
58.6500 46.6970
58.6600 46.3595
58.6700 52.6448
58.6800 50.2860
58.6900 68.3721
58.7000 74.1340
58.7100 50.4744
58.7200 54.2359
58.7300 54.4162
58.7400 51.4609
58.7500 59.3006
58.7600 60.0518
58.7700 51.4064
58.7800 69.6618
58.7900 54.2625
58.8000 58.3808
58.8100 55.8021
58.8200 55.8200
58.8300 61.8966
58.8400 62.2314
58.8500 58.5510
58.8600 49.7725
58.8700 51.5590
58.8800 55.1027
58.8900 66.8568
58.9000 59.1595
58.9100 68.6306
58.9200 63.3892
58.9300 56.7660
58.9400 52.9728
58.9500 47.4650
58.9600 65.7117
58.9700 69.2926
58.9800 53.4371
58.9900 48.5860
59.0000 61.9354
59.0100 56.1777
59.0200 64.8474
59.0300 59.0773
59.0400 60.7837
59.0500 51.1151
59.0600 57.8993
59.0700 68.3176
59.0800 54.2156
59.0900 48.6453
59.1000 50.9738
59.1100 67.1031
59.1200 55.5290
59.1300 60.7101
59.1400 53.2477
59.1500 47.1590
59.1600 48.5426
59.1700 56.6014
59.1800 71.4467
59.1900 59.6614
59.2000 46.9335
59.2100 48.9831
59.2200 43.0211
59.2300 59.6598
59.2400 52.8987
59.2500 41.2844
59.2600 62.5466
59.2700 48.3939
59.2800 59.8341
59.2900 53.0838
59.3000 46.1598
59.3100 54.8730
59.3200 48.0035
59.3300 48.6962
59.3400 59.7684
59.3500 49.7905
59.3600 55.4272
59.3700 59.8002
59.3800 58.5004
59.3900 53.5996
59.4000 52.2968
59.4100 61.9103
59.4200 56.7404
59.4300 53.8696
59.4400 44.1352
59.4500 43.2988
59.4600 61.9265
59.4700 61.2889
59.4800 57.6745
59.4900 42.8243
59.5000 54.4623
59.5100 62.5116
59.5200 59.6793
59.5300 73.7936
59.5400 58.5626
59.5500 61.8306
59.5600 58.8867
59.5700 63.3089
59.5800 53.8723
59.5900 48.2198
59.6000 59.4964
59.6100 63.8196
59.6200 56.1795
59.6300 57.0507
59.6400 60.4166
59.6500 56.3660
59.6600 52.0015
59.6700 64.3541
59.6800 74.2313
59.6900 58.1722
59.7000 65.7074
59.7100 47.3104
59.7200 62.0318
59.7300 53.3179
59.7400 57.6416
59.7500 59.0630
59.7600 48.9424
59.7700 62.3300
59.7800 51.7596
59.7900 62.3059
59.8000 56.9729
59.8100 51.7570
59.8200 61.8540
59.8300 62.1681
59.8400 51.7300
59.8500 52.3617
59.8600 52.9139
59.8700 60.2078
59.8800 60.7655
59.8900 47.7583
59.9000 53.0324
59.9100 51.7864
59.9200 64.7604
59.9300 56.7700
59.9400 54.5456
59.9500 58.6763
59.9600 60.3038
59.9700 53.3135
59.9800 50.9287
59.9900 58.3043
60.0000 54.8524
60.0100 59.0134
60.0200 53.2966
60.0300 64.5199
60.0400 49.2440
60.0500 40.9527
60.0600 50.3669
60.0700 50.7552
60.0800 45.6954
60.0900 59.6322
60.1000 52.1170
60.1100 50.7613
60.1200 56.6765
60.1300 59.6376
60.1400 54.6130
60.1500 53.5294
60.1600 40.9817
60.1700 64.6238
60.1800 52.5186
60.1900 62.8873
60.2000 57.3900
60.2100 52.4682
60.2200 45.4487
60.2300 50.3429
60.2400 53.2439
60.2500 46.0775
60.2600 66.3265
60.2700 71.6161
60.2800 50.4521
60.2900 52.5502
60.3000 47.3910
60.3100 67.7219
60.3200 50.7852
60.3300 62.3999
60.3400 47.5510
60.3500 52.6886
60.3600 65.9568
60.3700 53.4328
60.3800 64.8936
60.3900 57.8723
60.4000 48.8384
60.4100 56.2358
60.4200 47.4152
60.4300 60.4952
60.4400 57.9941
60.4500 64.4616
60.4600 54.4269
60.4700 52.5020
60.4800 43.7305
60.4900 55.6197
60.5000 56.3749
60.5100 47.3556
60.5200 60.4203
60.5300 52.8887
60.5400 54.1350
60.5500 59.8417
60.5600 52.1840
60.5700 61.2945
60.5800 61.6302
60.5900 44.5841
60.6000 52.7118
60.6100 53.3394
60.6200 51.9458
60.6300 45.5358
60.6400 51.2993
60.6500 53.8615
60.6600 58.9056
60.6700 51.9843
60.6800 55.6380
60.6900 64.0092
60.7000 55.7074
60.7100 60.8392
60.7200 44.1024
60.7300 64.2457
60.7400 54.4362
60.7500 47.1279
60.7600 61.5936
60.7700 53.0978
60.7800 62.5390
60.7900 57.2548
60.8000 50.6053
60.8100 48.7713
60.8200 69.5684
60.8300 59.5390
60.8400 44.8888
60.8500 52.5365
60.8600 59.5944
60.8700 48.5533
60.8800 49.8278
60.8900 46.9434
60.9000 51.9861
60.9100 66.8788
60.9200 44.5270
60.9300 57.1933
60.9400 53.9792
60.9500 46.8741
60.9600 57.5661
60.9700 63.1478
60.9800 62.0021
60.9900 66.9652
61.0000 49.2804
61.0100 46.6297
61.0200 46.7381
61.0300 47.3308
61.0400 58.1577
61.0500 62.0694
61.0600 69.7216
61.0700 53.0826
61.0800 48.0352
61.0900 48.6180
61.1000 45.2035
61.1100 56.3908
61.1200 46.9075
61.1300 57.0869
61.1400 48.8108
61.1500 62.7379
61.1600 37.5507
61.1700 50.3690
61.1800 54.0551
61.1900 54.6050
61.2000 38.7694
61.2100 56.0943
61.2200 53.4382
61.2300 55.2562
61.2400 39.8533
61.2500 57.8823
61.2600 61.1051
61.2700 53.3298
61.2800 49.0021
61.2900 49.3250
61.3000 55.5561
61.3100 59.1333
61.3200 53.5865
61.3300 52.9499
61.3400 58.7046
61.3500 50.4904
61.3600 51.3596
61.3700 57.1405
61.3800 54.5818
61.3900 54.6919
61.4000 64.4278
61.4100 55.0505
61.4200 48.1491
61.4300 45.8585
61.4400 60.7793
61.4500 59.1165
61.4600 47.4767
61.4700 60.8971
61.4800 53.3808
61.4900 48.2255
61.5000 49.5715
61.5100 49.9421
61.5200 60.5023
61.5300 54.3876
61.5400 54.7579
61.5500 49.9440
61.5600 50.2275
61.5700 50.1863
61.5800 50.8250
61.5900 53.6469
61.6000 58.7230
61.6100 64.4106
61.6200 41.7835
61.6300 55.1270
61.6400 56.3115
61.6500 52.4807
61.6600 53.9873
61.6700 49.9700
61.6800 50.4843
61.6900 67.8672
61.7000 47.6205
61.7100 53.3492
61.7200 60.8394
61.7300 59.7377
61.7400 61.6671
61.7500 57.6312
61.7600 57.6954
61.7700 58.3925
61.7800 44.0193
61.7900 61.3151
61.8000 68.8855
61.8100 67.7434
61.8200 49.0573
61.8300 57.5216
61.8400 54.8982
61.8500 42.9445
61.8600 59.9347
61.8700 52.5737
61.8800 48.6038
61.8900 52.7813
61.9000 48.5745
61.9100 48.3117
61.9200 58.3183
61.9300 61.3351
61.9400 45.4456
61.9500 56.4360
61.9600 63.7779
61.9700 55.3543
61.9800 65.6966
61.9900 53.8394
62.0000 49.8717
62.0100 49.8863
62.0200 52.5012
62.0300 55.4321
62.0400 57.5980
62.0500 41.6600
62.0600 48.2229
62.0700 56.9370
62.0800 49.3872
62.0900 51.9701
62.1000 59.2258
62.1100 53.2222
62.1200 54.3185
62.1300 53.4683
62.1400 47.0134
62.1500 44.6093
62.1600 50.5412
62.1700 54.7259
62.1800 53.8414
62.1900 56.9804
62.2000 43.9403
62.2100 52.7800
62.2200 50.9257
62.2300 38.3817
62.2400 58.9555
62.2500 67.8606
62.2600 58.5925
62.2700 57.5699
62.2800 50.3929
62.2900 45.9123
62.3000 57.3370
62.3100 62.4956
62.3200 49.1783
62.3300 47.9448
62.3400 56.4694
62.3500 51.6484
62.3600 49.8726
62.3700 56.8317
62.3800 57.0421
62.3900 48.2874
62.4000 59.3742
62.4100 55.9664
62.4200 54.5724
62.4300 58.9264
62.4400 68.7418
62.4500 57.0715
62.4600 64.9230
62.4700 63.8572
62.4800 56.1173
62.4900 60.4084
62.5000 54.0700
62.5100 56.9320
62.5200 55.2834
62.5300 51.8708
62.5400 46.5662
62.5500 56.5161
62.5600 52.9185
62.5700 55.3419
62.5800 64.0548
62.5900 51.6121
62.6000 57.1376
62.6100 47.8425
62.6200 54.2348
62.6300 46.5756
62.6400 56.8979
62.6500 58.9543
62.6600 53.1830
62.6700 43.1695
62.6800 60.4626
62.6900 45.9410
62.7000 54.6238
62.7100 57.0956
62.7200 64.3258
62.7300 52.5599
62.7400 59.8806
62.7500 59.7918
62.7600 50.1061
62.7700 43.1870
62.7800 57.4482
62.7900 66.0805
62.8000 52.9705
62.8100 48.6961
62.8200 52.8753
62.8300 65.4947
62.8400 61.7994
62.8500 55.0892
62.8600 61.8770
62.8700 49.0046
62.8800 57.6953
62.8900 40.6185
62.9000 63.1186
62.9100 59.6750
62.9200 43.2284
62.9300 51.6924
62.9400 59.3409
62.9500 64.0023
62.9600 54.1241
62.9700 44.0025
62.9800 54.4894
62.9900 55.4206
63.0000 58.6818
63.0100 52.2706
63.0200 53.2523
63.0300 66.7413
63.0400 48.6026
63.0500 56.6506
63.0600 54.7726
63.0700 55.4018
63.0800 52.5227
63.0900 52.4033
63.1000 65.5748
63.1100 49.9166
63.1200 64.2750
63.1300 52.0897
63.1400 50.4267
63.1500 58.6129
63.1600 69.8846
63.1700 55.3380
63.1800 52.1955
63.1900 61.1783
63.2000 50.4995
63.2100 53.9855
63.2200 55.0215
63.2300 42.2779
63.2400 45.2616
63.2500 57.2621
63.2600 56.9213
63.2700 56.9769
63.2800 50.4716
63.2900 56.7412
63.3000 45.7482
63.3100 54.0324
63.3200 51.3956
63.3300 46.9408
63.3400 59.1670
63.3500 54.7861
63.3600 61.1704
63.3700 57.8806
63.3800 50.6920
63.3900 37.6563
63.4000 51.8580
63.4100 43.8952
63.4200 47.2764
63.4300 47.8687
63.4400 46.0797
63.4500 54.7039
63.4600 67.5374
63.4700 51.0340
63.4800 45.1037
63.4900 58.1835
63.5000 53.7278
63.5100 55.0648
63.5200 47.6606
63.5300 59.4530
63.5400 62.9631
63.5500 62.2006
63.5600 53.3353
63.5700 59.7239
63.5800 43.6334
63.5900 62.0689
63.6000 66.8481
63.6100 61.4828
63.6200 62.6120
63.6300 60.9689
63.6400 54.5317
63.6500 39.2399
63.6600 49.2679
63.6700 58.5712
63.6800 43.9642
63.6900 65.1485
63.7000 56.8524
63.7100 50.0400
63.7200 59.4445
63.7300 52.0338
63.7400 51.5623
63.7500 54.1970
63.7600 60.8145
63.7700 51.0550
63.7800 51.8513
63.7900 37.8005
63.8000 62.6263
63.8100 58.1916
63.8200 69.5341
63.8300 56.2563
63.8400 45.2414
63.8500 45.4416
63.8600 58.4437
63.8700 48.9768
63.8800 45.5474
63.8900 62.0447
63.9000 48.2011
63.9100 63.4276
63.9200 56.5971
63.9300 50.0511
63.9400 62.6922
63.9500 46.6295
63.9600 59.9074
63.9700 47.5884
63.9800 47.8531
63.9900 41.2500
64.0000 50.4786
64.0100 57.3466
64.0200 48.3974
64.0300 54.9195
64.0400 48.4981
64.0500 45.1448
64.0600 54.3550
64.0700 56.3070
64.0800 62.7875
64.0900 40.9709
64.1000 70.3720
64.1100 50.3641
64.1200 61.6047
64.1300 64.8340
64.1400 65.7528
64.1500 56.3745
64.1600 66.4007
64.1700 57.9287
64.1800 57.5709
64.1900 62.0168
64.2000 44.8847
64.2100 53.4234
64.2200 44.8590
64.2300 50.2724
64.2400 56.7409
64.2500 48.7106
64.2600 65.7375
64.2700 63.7067
64.2800 45.1051
64.2900 43.1588
64.3000 56.7848
64.3100 59.3248
64.3200 64.3187
64.3300 60.3269
64.3400 52.0830
64.3500 53.8275
64.3600 63.0687
64.3700 64.8149
64.3800 68.7394
64.3900 51.4899
64.4000 71.2941
64.4100 70.0269
64.4200 63.8671
64.4300 67.4755
64.4400 55.5681
64.4500 60.0783
64.4600 61.7405
64.4700 77.4202
64.4800 65.9795
64.4900 79.4838
64.5000 75.8799
64.5100 86.2575
64.5200 75.0445
64.5300 91.3241
64.5400 80.2816
64.5500 83.9660
64.5600 82.9891
64.5700 103.5225
64.5800 108.0328
64.5900 98.9703
64.6000 110.5572
64.6100 106.9263
64.6200 107.1282
64.6300 127.4979
64.6400 108.3634
64.6500 125.9948
64.6600 149.2487
64.6700 136.7054
64.6800 138.9333
64.6900 151.4060
64.7000 146.4811
64.7100 161.5257
64.7200 195.1295
64.7300 197.6370
64.7400 177.2417
64.7500 184.4361
64.7600 193.7134
64.7700 213.5030
64.7800 202.8590
64.7900 192.2489
64.8000 192.7370
64.8100 202.0307
64.8200 193.1177
64.8300 203.6162
64.8400 165.4196
64.8500 185.2165
64.8600 153.7521
64.8700 155.0581
64.8800 143.4282
64.8900 133.6394
64.9000 133.6149
64.9100 130.4826
64.9200 106.0629
64.9300 97.9792
64.9400 97.1597
64.9500 100.7988
64.9600 105.0115
64.9700 79.2752
64.9800 67.8015
64.9900 61.7539
65.0000 70.6264
65.0100 67.0049
65.0200 83.4228
65.0300 72.1906
65.0400 73.2373
65.0500 50.3047
65.0600 65.0559
65.0700 77.5054
65.0800 59.7156
65.0900 65.0084
65.1000 64.2446
65.1100 56.5710
65.1200 64.6607
65.1300 63.7021
65.1400 63.5365
65.1500 61.7715
65.1600 44.7763
65.1700 61.6991
65.1800 62.0767
65.1900 55.8306
65.2000 44.5490
65.2100 42.7743
65.2200 58.6112
65.2300 52.7784
65.2400 59.8610
65.2500 61.6326
65.2600 50.0537
65.2700 63.1274
65.2800 52.5133
65.2900 49.4173
65.3000 63.2859
65.3100 61.0756
65.3200 54.3167
65.3300 45.6594
65.3400 58.0130
65.3500 46.2619
65.3600 57.9065
65.3700 71.1871
65.3800 59.9178
65.3900 57.0791
65.4000 54.8778
65.4100 61.4808
65.4200 51.6522
65.4300 63.1051
65.4400 59.0387
65.4500 45.0625
65.4600 64.7357
65.4700 48.2019
65.4800 54.4691
65.4900 53.1823
65.5000 52.8204
65.5100 55.7597
65.5200 53.7548
65.5300 60.9109
65.5400 52.9574
65.5500 40.8127
65.5600 55.1662
65.5700 40.5903
65.5800 61.8175
65.5900 51.2143
65.6000 55.0900
65.6100 42.3499
65.6200 54.9729
65.6300 58.3364
65.6400 63.6623
65.6500 64.2976
65.6600 52.2129
65.6700 51.4023
65.6800 62.2689
65.6900 53.7478
65.7000 65.2067
65.7100 47.9247
65.7200 48.7262
65.7300 52.5920
65.7400 53.3117
65.7500 62.4835
65.7600 46.7524
65.7700 56.4438
65.7800 57.0790
65.7900 46.9532
65.8000 50.6269
65.8100 40.6882
65.8200 53.0485
65.8300 59.6032
65.8400 56.5008
65.8500 51.2526
65.8600 49.2528
65.8700 58.5628
65.8800 65.1076
65.8900 51.5399
65.9000 41.8982
65.9100 53.2748
65.9200 49.9334
65.9300 61.3194
65.9400 48.7014
65.9500 54.5123
65.9600 49.4925
65.9700 44.5016
65.9800 28.3008
65.9900 47.8889
66.0000 54.3108
66.0100 39.6076
66.0200 60.2522
66.0300 46.1626
66.0400 61.1658
66.0500 46.5955
66.0600 55.2497
66.0700 54.9079
66.0800 53.8342
66.0900 46.6236
66.1000 53.5448
66.1100 55.8429
66.1200 40.0459
66.1300 51.7067
66.1400 48.5218
66.1500 60.1257
66.1600 57.4862
66.1700 52.1804
66.1800 70.4358
66.1900 62.3094
66.2000 47.1498
66.2100 46.1147
66.2200 48.4812
66.2300 48.8370
66.2400 57.9135
66.2500 61.9317
66.2600 51.5007
66.2700 55.9974
66.2800 55.6590
66.2900 56.0522
66.3000 59.7971
66.3100 48.6975
66.3200 48.1558
66.3300 52.8043
66.3400 56.9454
66.3500 69.9850
66.3600 55.4249
66.3700 57.0460
66.3800 56.1572
66.3900 50.5115
66.4000 48.5337
66.4100 48.3601
66.4200 62.4232
66.4300 59.1006
66.4400 56.7353
66.4500 50.0583
66.4600 47.6536
66.4700 56.6760
66.4800 67.5211
66.4900 66.5026
66.5000 44.4573
66.5100 44.1757
66.5200 56.1646
66.5300 61.3699
66.5400 55.7032
66.5500 52.3409
66.5600 54.3143
66.5700 57.9657
66.5800 45.6775
66.5900 41.7493
66.6000 50.4098
66.6100 61.7938
66.6200 58.2499
66.6300 68.9580
66.6400 61.4315
66.6500 53.1989
66.6600 64.2456
66.6700 52.0529
66.6800 53.2785
66.6900 55.8478
66.7000 57.7705
66.7100 58.5030
66.7200 61.1101
66.7300 61.8083
66.7400 51.4026
66.7500 51.7224
66.7600 58.4613
66.7700 54.4535
66.7800 52.7492
66.7900 36.8064
66.8000 48.7936
66.8100 45.5740
66.8200 47.9239
66.8300 54.0464
66.8400 46.9321
66.8500 60.6825
66.8600 50.4537
66.8700 55.4094
66.8800 52.6812
66.8900 61.8966
66.9000 45.9125
66.9100 50.2717
66.9200 49.7076
66.9300 55.0930
66.9400 58.2609
66.9500 48.1711
66.9600 49.4867
66.9700 55.6396
66.9800 43.9803
66.9900 52.8794
67.0000 52.6968
67.0100 69.6375
67.0200 52.7283
67.0300 49.9653
67.0400 46.1895
67.0500 52.1253
67.0600 61.5257
67.0700 48.6523
67.0800 62.4396
67.0900 58.8578
67.1000 43.8759
67.1100 48.0731
67.1200 59.5705
67.1300 56.5541
67.1400 45.9406
67.1500 45.7722
67.1600 56.2228
67.1700 44.8963
67.1800 42.4149
67.1900 48.7187
67.2000 54.9127
67.2100 43.9124
67.2200 45.7801
67.2300 55.0573
67.2400 36.7858
67.2500 38.6117
67.2600 52.1203
67.2700 51.0623
67.2800 55.9060
67.2900 51.9490
67.3000 49.9548
67.3100 51.6148
67.3200 53.6962
67.3300 45.6194
67.3400 51.6022
67.3500 55.5027
67.3600 45.8694
67.3700 54.4881
67.3800 54.1206
67.3900 57.3362
67.4000 55.5006
67.4100 47.2896
67.4200 53.6275
67.4300 62.6288
67.4400 63.9556
67.4500 48.5734
67.4600 54.1642
67.4700 45.7115
67.4800 52.3755
67.4900 70.3888
67.5000 68.6406
67.5100 55.7076
67.5200 49.4734
67.5300 52.6446
67.5400 56.1424
67.5500 51.5908
67.5600 52.6926
67.5700 44.9053
67.5800 52.3525
67.5900 43.0587
67.6000 53.0327
67.6100 61.1232
67.6200 56.7008
67.6300 61.2386
67.6400 49.0080
67.6500 53.6155
67.6600 51.9807
67.6700 54.0343
67.6800 54.3441
67.6900 55.9027
67.7000 48.8461
67.7100 42.7694
67.7200 51.1342
67.7300 56.4847
67.7400 67.8253
67.7500 58.0154
67.7600 54.9443
67.7700 58.1077
67.7800 58.3956
67.7900 38.0847
67.8000 53.0755
67.8100 39.7217
67.8200 52.3285
67.8300 52.0590
67.8400 49.8522
67.8500 48.3013
67.8600 45.6804
67.8700 52.0936
67.8800 51.1923
67.8900 41.6442
67.9000 53.8893
67.9100 44.2892
67.9200 47.7033
67.9300 58.6065
67.9400 49.0047
67.9500 67.3668
67.9600 54.3615
67.9700 58.4925
67.9800 46.9039
67.9900 46.5695
68.0000 55.1344
68.0100 57.7771
68.0200 63.7416
68.0300 51.4291
68.0400 54.5676
68.0500 46.6605
68.0600 47.9256
68.0700 60.6188
68.0800 56.0393
68.0900 60.1499
68.1000 65.3958
68.1100 63.3963
68.1200 59.2342
68.1300 50.2884
68.1400 47.0637
68.1500 50.8390
68.1600 50.3192
68.1700 47.9944
68.1800 45.5987
68.1900 49.7840
68.2000 59.0045
68.2100 40.8242
68.2200 40.0386
68.2300 51.8743
68.2400 52.9655
68.2500 54.2928
68.2600 58.3505
68.2700 54.9525
68.2800 56.6386
68.2900 56.2310
68.3000 59.0121
68.3100 52.5674
68.3200 53.4315
68.3300 57.0393
68.3400 60.3856
68.3500 45.0975
68.3600 56.6384
68.3700 54.1278
68.3800 50.7246
68.3900 64.0555
68.4000 49.9859
68.4100 46.8057
68.4200 52.8499
68.4300 44.2160
68.4400 55.8200
68.4500 60.0353
68.4600 51.5541
68.4700 54.5423
68.4800 54.8055
68.4900 52.0366
68.5000 52.7334
68.5100 54.6550
68.5200 52.9443
68.5300 67.2823
68.5400 64.8769
68.5500 53.4726
68.5600 39.2287
68.5700 50.8900
68.5800 49.2648
68.5900 58.4272
68.6000 61.7675
68.6100 55.6974
68.6200 46.9178
68.6300 49.9909
68.6400 55.3706
68.6500 58.4118
68.6600 54.1056
68.6700 45.9677
68.6800 45.5588
68.6900 54.7709
68.7000 57.6416
68.7100 54.3318
68.7200 46.1467
68.7300 57.0347
68.7400 61.5101
68.7500 53.4618
68.7600 51.1122
68.7700 56.7445
68.7800 52.5937
68.7900 39.6654
68.8000 59.3071
68.8100 61.7514
68.8200 42.0762
68.8300 46.3243
68.8400 55.1007
68.8500 52.5795
68.8600 53.4706
68.8700 54.2353
68.8800 52.3956
68.8900 49.0691
68.9000 49.8155
68.9100 42.7813
68.9200 53.0751
68.9300 50.6834
68.9400 43.9689
68.9500 59.8235
68.9600 46.8818
68.9700 47.0500
68.9800 55.7340
68.9900 51.1980
69.0000 48.4857
69.0100 60.8804
69.0200 52.4790
69.0300 46.8235
69.0400 51.0126
69.0500 52.2095
69.0600 59.5737
69.0700 51.1375
69.0800 48.3708
69.0900 52.3116
69.1000 48.8904
69.1100 46.2354
69.1200 45.1337
69.1300 41.7440
69.1400 44.3051
69.1500 58.8388
69.1600 47.6316
69.1700 42.9799
69.1800 56.6133
69.1900 49.4267
69.2000 38.2782
69.2100 36.4308
69.2200 40.4795
69.2300 47.8712
69.2400 54.2086
69.2500 50.9560
69.2600 52.2858
69.2700 55.6410
69.2800 52.1921
69.2900 46.8786
69.3000 47.3547
69.3100 48.5656
69.3200 62.4875
69.3300 51.7645
69.3400 56.1812
69.3500 67.5453
69.3600 53.5371
69.3700 50.0489
69.3800 62.7519
69.3900 59.4741
69.4000 54.4761
69.4100 65.9176
69.4200 45.4549
69.4300 41.9514
69.4400 56.6876
69.4500 50.3262
69.4600 63.2198
69.4700 56.3048
69.4800 56.1558
69.4900 59.7940
69.5000 55.0283
69.5100 61.6374
69.5200 53.6919
69.5300 56.4696
69.5400 51.2878
69.5500 53.8412
69.5600 53.4776
69.5700 51.0578
69.5800 50.1883
69.5900 46.1495
69.6000 44.0729
69.6100 72.3557
69.6200 69.4298
69.6300 61.3922
69.6400 45.0440
69.6500 48.6783
69.6600 48.7711
69.6700 55.0318
69.6800 52.2437
69.6900 61.9978
69.7000 56.2133
69.7100 61.3362
69.7200 49.5332
69.7300 56.3920
69.7400 61.6295
69.7500 48.2858
69.7600 41.7962
69.7700 48.9057
69.7800 52.7168
69.7900 60.1583
69.8000 55.5976
69.8100 40.0947
69.8200 57.6550
69.8300 43.1702
69.8400 41.3786
69.8500 55.4405
69.8600 47.2533
69.8700 50.3011
69.8800 50.5682
69.8900 56.6338
69.9000 52.4190
69.9100 43.7591
69.9200 49.1428
69.9300 48.2900
69.9400 54.3546
69.9500 46.0494
69.9600 55.9939
69.9700 68.9508
69.9800 49.8949
69.9900 44.0384
70.0000 60.3856
70.0100 55.5491
70.0200 72.2702
70.0300 67.2103
70.0400 42.3984
70.0500 39.8552
70.0600 45.4676
70.0700 56.2312
70.0800 54.2376
70.0900 52.2118
70.1000 58.9838
70.1100 57.5820
70.1200 47.0113
70.1300 67.8766
70.1400 62.1995
70.1500 47.2029
70.1600 66.5033
70.1700 59.9935
70.1800 54.2987
70.1900 58.3790
70.2000 55.0793
70.2100 64.6876
70.2200 45.8724
70.2300 60.9032
70.2400 50.0911
70.2500 50.1258
70.2600 50.3711
70.2700 42.6592
70.2800 48.0088
70.2900 51.8473
70.3000 44.8831
70.3100 61.9266
70.3200 57.3268
70.3300 62.6635
70.3400 67.0671
70.3500 52.0059
70.3600 51.6564
70.3700 54.9504
70.3800 56.5186
70.3900 49.8131
70.4000 46.9302
70.4100 52.2761
70.4200 47.4014
70.4300 49.4354
70.4400 43.8250
70.4500 48.2012
70.4600 64.2495
70.4700 54.6838
70.4800 57.4521
70.4900 64.6888
70.5000 47.2276
70.5100 58.9578
70.5200 53.0284
70.5300 53.2733
70.5400 52.7559
70.5500 61.0596
70.5600 60.4341
70.5700 53.8859
70.5800 66.3918
70.5900 43.6932
70.6000 58.3114
70.6100 52.7949
70.6200 49.5602
70.6300 54.0982
70.6400 47.9656
70.6500 55.5487
70.6600 54.6668
70.6700 47.6125
70.6800 52.1229
70.6900 56.3083
70.7000 57.5112
70.7100 44.9201
70.7200 62.9275
70.7300 59.9963
70.7400 52.1101
70.7500 51.5205
70.7600 54.9948
70.7700 42.3780
70.7800 56.7250
70.7900 51.4309
70.8000 59.9454
70.8100 61.4349
70.8200 46.5247
70.8300 59.1771
70.8400 50.0625
70.8500 56.3757
70.8600 47.0938
70.8700 39.5089
70.8800 55.6290
70.8900 50.2000
70.9000 42.2337
70.9100 59.7057
70.9200 46.0089
70.9300 43.2218
70.9400 52.5497
70.9500 57.5198
70.9600 64.9610
70.9700 61.8896
70.9800 54.7049
70.9900 53.5749
71.0000 52.9157
71.0100 52.5619
71.0200 43.6955
71.0300 54.4142
71.0400 59.7749
71.0500 53.1229
71.0600 48.3089
71.0700 54.6197
71.0800 61.9846
71.0900 57.1825
71.1000 55.2176
71.1100 55.4293
71.1200 45.0126
71.1300 67.4819
71.1400 53.7523
71.1500 50.6593
71.1600 45.7902
71.1700 49.4354
71.1800 56.9620
71.1900 59.9740
71.2000 41.4444
71.2100 53.3449
71.2200 57.4376
71.2300 50.0932
71.2400 57.5584
71.2500 55.8148
71.2600 56.1820
71.2700 67.8635
71.2800 59.6509
71.2900 63.7953
71.3000 42.5386
71.3100 63.6178
71.3200 60.3935
71.3300 45.4561
71.3400 55.9321
71.3500 47.9324
71.3600 42.0021
71.3700 53.5225
71.3800 50.7766
71.3900 40.9422
71.4000 52.2161
71.4100 52.1544
71.4200 54.4794
71.4300 51.8226
71.4400 47.9740
71.4500 55.8879
71.4600 52.3245
71.4700 57.7725
71.4800 58.2518
71.4900 48.7808
71.5000 68.9435
71.5100 50.3932
71.5200 51.9377
71.5300 46.2016
71.5400 53.2803
71.5500 54.5662
71.5600 57.8153
71.5700 55.4906
71.5800 51.9787
71.5900 64.6151
71.6000 58.9801
71.6100 60.9469
71.6200 41.5885
71.6300 60.5874
71.6400 48.0277
71.6500 51.8691
71.6600 62.0251
71.6700 56.5846
71.6800 59.9107
71.6900 42.0726
71.7000 57.2587
71.7100 50.6380
71.7200 46.8022
71.7300 54.6080
71.7400 49.3938
71.7500 55.6568
71.7600 53.0229
71.7700 61.6334
71.7800 59.4735
71.7900 57.5900
71.8000 48.0131
71.8100 52.9508
71.8200 58.8653
71.8300 43.5438
71.8400 60.2762
71.8500 51.3962
71.8600 45.6967
71.8700 56.3296
71.8800 53.8409
71.8900 53.6880
71.9000 54.1627
71.9100 45.8614
71.9200 58.1855
71.9300 50.9989
71.9400 42.8364
71.9500 52.4453
71.9600 42.3969
71.9700 42.7180
71.9800 48.0122
71.9900 52.9275
72.0000 46.2831
72.0100 53.0758
72.0200 63.6606
72.0300 60.7145
72.0400 62.6973
72.0500 48.4635
72.0600 63.2250
72.0700 59.0520
72.0800 45.6713
72.0900 56.1297
72.1000 55.8583
72.1100 59.7153
72.1200 54.9685
72.1300 51.4862
72.1400 57.7352
72.1500 50.2865
72.1600 60.2063
72.1700 48.1124
72.1800 59.0529
72.1900 57.1854
72.2000 44.7252
72.2100 52.0454
72.2200 59.0023
72.2300 45.6331
72.2400 49.3819
72.2500 61.8952
72.2600 41.3229
72.2700 48.6280
72.2800 66.5996
72.2900 57.5680
72.3000 48.8518
72.3100 62.9138
72.3200 50.3903
72.3300 52.8010
72.3400 50.5558
72.3500 56.9745
72.3600 45.3579
72.3700 40.9735
72.3800 43.4800
72.3900 47.8247
72.4000 51.6853
72.4100 50.7381
72.4200 50.9944
72.4300 49.7119
72.4400 45.6780
72.4500 59.1778
72.4600 58.9345
72.4700 53.2136
72.4800 48.7955
72.4900 48.8684
72.5000 45.0613
72.5100 53.0242
72.5200 45.8830
72.5300 53.2303
72.5400 55.9744
72.5500 51.1106
72.5600 48.4158
72.5700 49.3133
72.5800 52.2013
72.5900 40.1190
72.6000 54.2953
72.6100 42.6149
72.6200 53.2634
72.6300 58.0135
72.6400 53.1087
72.6500 49.1979
72.6600 53.0961
72.6700 56.2362
72.6800 54.2514
72.6900 58.8931
72.7000 46.7171
72.7100 59.7349
72.7200 66.1380
72.7300 52.4630
72.7400 41.3882
72.7500 52.5295
72.7600 51.8012
72.7700 53.6791
72.7800 47.6246
72.7900 59.3857
72.8000 49.4435
72.8100 44.0104
72.8200 53.0936
72.8300 61.6130
72.8400 49.3601
72.8500 40.6916
72.8600 53.2313
72.8700 60.6403
72.8800 47.9083
72.8900 77.4408
72.9000 55.9409
72.9100 54.3280
72.9200 51.7816
72.9300 49.0915
72.9400 45.3494
72.9500 50.2647
72.9600 52.4266
72.9700 56.1767
72.9800 52.1840
72.9900 59.7885
73.0000 51.4579
73.0100 70.1943
73.0200 51.6321
73.0300 67.1016
73.0400 50.0740
73.0500 53.5775
73.0600 45.4305
73.0700 53.9498
73.0800 39.8368
73.0900 56.2519
73.1000 44.4653
73.1100 46.9583
73.1200 43.5198
73.1300 44.8468
73.1400 53.8092
73.1500 50.1259
73.1600 38.0294
73.1700 34.6932
73.1800 53.5286
73.1900 56.0845
73.2000 48.7607
73.2100 42.2200
73.2200 53.6167
73.2300 56.0029
73.2400 57.1729
73.2500 62.0966
73.2600 52.8879
73.2700 55.8927
73.2800 57.0622
73.2900 51.6519
73.3000 56.4125
73.3100 55.2344
73.3200 45.4371
73.3300 62.3925
73.3400 55.3424
73.3500 55.4852
73.3600 53.7575
73.3700 56.0253
73.3800 60.7871
73.3900 57.8843
73.4000 51.6140
73.4100 50.3110
73.4200 59.4825
73.4300 42.5533
73.4400 46.5001
73.4500 51.9416
73.4600 58.7470
73.4700 45.4743
73.4800 44.3628
73.4900 49.2398
73.5000 46.8554
73.5100 52.4939
73.5200 51.7909
73.5300 44.5869
73.5400 62.4621
73.5500 49.4219
73.5600 44.2798
73.5700 54.9777
73.5800 48.7968
73.5900 49.9905
73.6000 53.1637
73.6100 56.5104
73.6200 53.8344
73.6300 48.4632
73.6400 58.5510
73.6500 69.3225
73.6600 58.9264
73.6700 48.8241
73.6800 45.6626
73.6900 50.4285
73.7000 46.8515
73.7100 52.1118
73.7200 48.2774
73.7300 57.5511
73.7400 68.0829
73.7500 68.4800
73.7600 52.6691
73.7700 55.0048
73.7800 49.2846
73.7900 59.8321
73.8000 61.3226
73.8100 62.9176
73.8200 54.3139
73.8300 53.2211
73.8400 48.3903
73.8500 50.0742
73.8600 60.9196
73.8700 49.4498
73.8800 62.8018
73.8900 52.1302
73.9000 58.9313
73.9100 53.0848
73.9200 60.0138
73.9300 59.7391
73.9400 49.9061
73.9500 62.4600
73.9600 40.9970
73.9700 51.9419
73.9800 59.6742
73.9900 61.6931
74.0000 52.5374
74.0100 55.8324
74.0200 65.0862
74.0300 54.7070
74.0400 54.3068
74.0500 60.6968
74.0600 45.7613
74.0700 53.8655
74.0800 54.6161
74.0900 59.0374
74.1000 50.5347
74.1100 68.4776
74.1200 48.5803
74.1300 57.3299
74.1400 59.7723
74.1500 52.7373
74.1600 55.3969
74.1700 58.7534
74.1800 57.1491
74.1900 53.7365
74.2000 54.6602
74.2100 52.9106
74.2200 54.2776
74.2300 52.1899
74.2400 58.3471
74.2500 43.7662
74.2600 58.0529
74.2700 42.6223
74.2800 39.4176
74.2900 44.4769
74.3000 52.2802
74.3100 49.1283
74.3200 66.0128
74.3300 49.5917
74.3400 54.9657
74.3500 58.5613
74.3600 67.6315
74.3700 52.0938
74.3800 61.1115
74.3900 51.0189
74.4000 47.9486
74.4100 51.6193
74.4200 52.6306
74.4300 47.6782
74.4400 53.4240
74.4500 59.1604
74.4600 57.8796
74.4700 50.9428
74.4800 47.1252
74.4900 55.0467
74.5000 65.3612
74.5100 56.1018
74.5200 62.2014
74.5300 54.8683
74.5400 61.6295
74.5500 43.9554
74.5600 61.6781
74.5700 60.8871
74.5800 54.3490
74.5900 47.1368
74.6000 52.7200
74.6100 47.5066
74.6200 40.5877
74.6300 36.4785
74.6400 57.2850
74.6500 57.3912
74.6600 57.1601
74.6700 51.8648
74.6800 50.6094
74.6900 50.6516
74.7000 50.9315
74.7100 34.4720
74.7200 42.4943
74.7300 52.2523
74.7400 56.1384
74.7500 47.8748
74.7600 55.2494
74.7700 64.5522
74.7800 51.3500
74.7900 36.7895
74.8000 55.6327
74.8100 50.6674
74.8200 39.8979
74.8300 59.8069
74.8400 54.4795
74.8500 50.4682
74.8600 63.1466
74.8700 49.0124
74.8800 57.2069
74.8900 59.1103
74.9000 56.7894
74.9100 45.3872
74.9200 68.2908
74.9300 53.1570
74.9400 55.6012
74.9500 48.6595
74.9600 56.3197
74.9700 37.2749
74.9800 48.9027
74.9900 55.1252
75.0000 62.3038
75.0100 62.4168
75.0200 58.8635
75.0300 46.5156
75.0400 56.4780
75.0500 49.5858
75.0600 61.5271
75.0700 53.4213
75.0800 60.6353
75.0900 53.0084
75.1000 62.6246
75.1100 61.1014
75.1200 45.1331
75.1300 45.3801
75.1400 49.5765
75.1500 49.3982
75.1600 68.4958
75.1700 48.3961
75.1800 44.1996
75.1900 50.7480
75.2000 63.0058
75.2100 49.0935
75.2200 50.6447
75.2300 53.4005
75.2400 51.8172
75.2500 55.8227
75.2600 57.6077
75.2700 63.8885
75.2800 54.6953
75.2900 51.8347
75.3000 67.7317
75.3100 65.2689
75.3200 58.6902
75.3300 40.2001
75.3400 50.3488
75.3500 46.7266
75.3600 55.8455
75.3700 47.2066
75.3800 48.9644
75.3900 54.9583
75.4000 60.9653
75.4100 47.4838
75.4200 45.4012
75.4300 50.9145
75.4400 49.7391
75.4500 63.2402
75.4600 53.2788
75.4700 44.8359
75.4800 50.9078
75.4900 58.8264
75.5000 47.7938
75.5100 49.7888
75.5200 51.9902
75.5300 50.4168
75.5400 55.8566
75.5500 51.0708
75.5600 60.1071
75.5700 56.4468
75.5800 53.5907
75.5900 49.3677
75.6000 52.0655
75.6100 55.9457
75.6200 42.6916
75.6300 61.4640
75.6400 42.9385
75.6500 40.4164
75.6600 49.7066
75.6700 49.1349
75.6800 61.2261
75.6900 55.9705
75.7000 55.8371
75.7100 52.7433
75.7200 45.3662
75.7300 63.0326
75.7400 53.3707
75.7500 52.8751
75.7600 59.2291
75.7700 57.6124
75.7800 63.6519
75.7900 55.4594
75.8000 50.4792
75.8100 52.2419
75.8200 67.9280
75.8300 54.0980
75.8400 58.6989
75.8500 55.4846
75.8600 50.4883
75.8700 51.7830
75.8800 47.3658
75.8900 53.6111
75.9000 44.5033
75.9100 43.8523
75.9200 61.2876
75.9300 66.3134
75.9400 51.1744
75.9500 51.8674
75.9600 45.1378
75.9700 66.3618
75.9800 42.0955
75.9900 43.0552
76.0000 46.3686
76.0100 46.7646
76.0200 54.1710
76.0300 49.2701
76.0400 50.2006
76.0500 52.2426
76.0600 65.6940
76.0700 49.6779
76.0800 54.8904
76.0900 57.4689
76.1000 61.0728
76.1100 48.5314
76.1200 54.0506
76.1300 50.9674
76.1400 51.3509
76.1500 43.9170
76.1600 53.5596
76.1700 53.2689
76.1800 47.4342
76.1900 50.2545
76.2000 55.0540
76.2100 56.6636
76.2200 41.8090
76.2300 51.6848
76.2400 53.1882
76.2500 63.7900
76.2600 38.6449
76.2700 43.1311
76.2800 42.2088
76.2900 46.3176
76.3000 48.7320
76.3100 51.2995
76.3200 53.9081
76.3300 47.2758
76.3400 46.6312
76.3500 57.3639
76.3600 55.3569
76.3700 56.1739
76.3800 60.4432
76.3900 45.0730
76.4000 56.6409
76.4100 49.3238
76.4200 47.8393
76.4300 47.0540
76.4400 44.6398
76.4500 52.4830
76.4600 51.0791
76.4700 51.6078
76.4800 49.8430
76.4900 42.4423
76.5000 57.9258
76.5100 45.3341
76.5200 59.4494
76.5300 51.4698
76.5400 60.5121
76.5500 53.9434
76.5600 59.8798
76.5700 45.8010
76.5800 53.7745
76.5900 61.2790
76.6000 56.7192
76.6100 51.5922
76.6200 57.0584
76.6300 56.0206
76.6400 53.2974
76.6500 49.1363
76.6600 40.0595
76.6700 35.7915
76.6800 55.1514
76.6900 57.6155
76.7000 40.9360
76.7100 45.6994
76.7200 37.1651
76.7300 49.3167
76.7400 39.2241
76.7500 59.5515
76.7600 59.7007
76.7700 42.8527
76.7800 45.5166
76.7900 55.5507
76.8000 46.6441
76.8100 61.4027
76.8200 59.1191
76.8300 51.8989
76.8400 65.6422
76.8500 50.8831
76.8600 49.4436
76.8700 49.4328
76.8800 49.8422
76.8900 48.5670
76.9000 68.7020
76.9100 48.7322
76.9200 62.8116
76.9300 59.4561
76.9400 53.7336
76.9500 56.4995
76.9600 56.9435
76.9700 56.0369
76.9800 66.4580
76.9900 60.1928
77.0000 53.7825
77.0100 55.2230
77.0200 47.1184
77.0300 49.1330
77.0400 52.2896
77.0500 55.3262
77.0600 48.7430
77.0700 47.3797
77.0800 57.8694
77.0900 51.2732
77.1000 48.4062
77.1100 39.6669
77.1200 49.7728
77.1300 49.8753
77.1400 68.2933
77.1500 59.9360
77.1600 52.7735
77.1700 48.8328
77.1800 41.9996
77.1900 46.8145
77.2000 59.4600
77.2100 34.7391
77.2200 52.0356
77.2300 35.9645
77.2400 61.3258
77.2500 47.7411
77.2600 54.8659
77.2700 55.4935
77.2800 48.7388
77.2900 57.2285
77.3000 45.8126
77.3100 57.3116
77.3200 45.8211
77.3300 48.0359
77.3400 54.4347
77.3500 46.9208
77.3600 37.5151
77.3700 56.9956
77.3800 50.6468
77.3900 57.6002
77.4000 53.3263
77.4100 46.9685
77.4200 55.1699
77.4300 41.3583
77.4400 49.0969
77.4500 57.6550
77.4600 50.2185
77.4700 61.5416
77.4800 65.0664
77.4900 51.3657
77.5000 51.7135
77.5100 54.1049
77.5200 52.7592
77.5300 52.1470
77.5400 61.9505
77.5500 56.8109
77.5600 63.4345
77.5700 57.2839
77.5800 57.8199
77.5900 57.2693
77.6000 47.2198
77.6100 60.1072
77.6200 56.8868
77.6300 59.4375
77.6400 55.2040
77.6500 51.8231
77.6600 63.0127
77.6700 52.6506
77.6800 49.9877
77.6900 50.9217
77.7000 51.5195
77.7100 54.2672
77.7200 59.6224
77.7300 43.7088
77.7400 41.0949
77.7500 42.8166
77.7600 52.8330
77.7700 65.4350
77.7800 60.3377
77.7900 55.0620
77.8000 38.8473
77.8100 47.8118
77.8200 51.0303
77.8300 63.6235
77.8400 64.0852
77.8500 56.3109
77.8600 45.9259
77.8700 53.5800
77.8800 51.4369
77.8900 58.0046
77.9000 54.9779
77.9100 42.3932
77.9200 47.3492
77.9300 64.3549
77.9400 55.3098
77.9500 52.8541
77.9600 51.4436
77.9700 52.8801
77.9800 56.4675
77.9900 55.1590
78.0000 55.8717
78.0100 60.6559
78.0200 68.8818
78.0300 49.0874
78.0400 49.5155
78.0500 50.8767
78.0600 59.6792
78.0700 55.4751
78.0800 55.1973
78.0900 58.2472
78.1000 59.4089
78.1100 58.2607
78.1200 50.1019
78.1300 43.2057
78.1400 50.5477
78.1500 56.4597
78.1600 65.5328
78.1700 53.0240
78.1800 41.8244
78.1900 50.8525
78.2000 39.7277
78.2100 51.6033
78.2200 40.6311
78.2300 49.5447
78.2400 56.0719
78.2500 57.5360
78.2600 38.1756
78.2700 62.7997
78.2800 51.8420
78.2900 49.9583
78.3000 42.7187
78.3100 59.2405
78.3200 51.1801
78.3300 59.0813
78.3400 48.8158
78.3500 55.2245
78.3600 44.6777
78.3700 40.4362
78.3800 55.4947
78.3900 51.9485
78.4000 63.5890
78.4100 48.1275
78.4200 53.8251
78.4300 54.7422
78.4400 64.1313
78.4500 58.6910
78.4600 46.3606
78.4700 40.5645
78.4800 60.6497
78.4900 52.1747
78.5000 45.2119
78.5100 41.1281
78.5200 55.1986
78.5300 54.2351
78.5400 56.4615
78.5500 53.9288
78.5600 42.5623
78.5700 62.7437
78.5800 57.8435
78.5900 54.0762
78.6000 54.4383
78.6100 53.0054
78.6200 52.0173
78.6300 43.0579
78.6400 61.2409
78.6500 54.9472
78.6600 41.0121
78.6700 46.3273
78.6800 57.6964
78.6900 62.3542
78.7000 46.9815
78.7100 39.8193
78.7200 43.8153
78.7300 47.7291
78.7400 65.3587
78.7500 47.1556
78.7600 48.0123
78.7700 54.2053
78.7800 45.3232
78.7900 42.1243
78.8000 50.6626
78.8100 44.9067
78.8200 63.6332
78.8300 44.0864
78.8400 48.6730
78.8500 48.9242
78.8600 57.3195
78.8700 48.5177
78.8800 55.2395
78.8900 54.9177
78.9000 44.9968
78.9100 55.8275
78.9200 36.7539
78.9300 44.6768
78.9400 45.3019
78.9500 54.4546
78.9600 40.3203
78.9700 51.7117
78.9800 64.9581
78.9900 52.8272
79.0000 58.8964
79.0100 42.7019
79.0200 52.9530
79.0300 58.7263
79.0400 51.5906
79.0500 62.2015
79.0600 49.2568
79.0700 51.8883
79.0800 46.6367
79.0900 54.0394
79.1000 49.9822
79.1100 56.3151
79.1200 55.4695
79.1300 59.5156
79.1400 52.0892
79.1500 58.4580
79.1600 62.0087
79.1700 56.1200
79.1800 60.1934
79.1900 60.2896
79.2000 41.9124
79.2100 40.8774
79.2200 48.0675
79.2300 62.9860
79.2400 63.3632
79.2500 51.9051
79.2600 47.3852
79.2700 51.5112
79.2800 49.5653
79.2900 47.1613
79.3000 57.9559
79.3100 39.2821
79.3200 49.7600
79.3300 59.6427
79.3400 58.3770
79.3500 61.5736
79.3600 42.3304
79.3700 59.2041
79.3800 61.8952
79.3900 58.5017
79.4000 57.1940
79.4100 54.5710
79.4200 49.2218
79.4300 49.3256
79.4400 62.4883
79.4500 55.7665
79.4600 40.8449
79.4700 60.5409
79.4800 51.3448
79.4900 61.4645
79.5000 54.6293
79.5100 43.3533
79.5200 62.8419
79.5300 57.8797
79.5400 50.5067
79.5500 38.4266
79.5600 46.2006
79.5700 52.2136
79.5800 49.5537
79.5900 45.7499
79.6000 54.7364
79.6100 58.6282
79.6200 62.6725
79.6300 55.5523
79.6400 49.0904
79.6500 48.9130
79.6600 53.7974
79.6700 38.4910
79.6800 57.7428
79.6900 56.9789
79.7000 56.6108
79.7100 52.6718
79.7200 50.5647
79.7300 51.3325
79.7400 47.4418
79.7500 66.2175
79.7600 50.3327
79.7700 52.0132
79.7800 55.0308
79.7900 53.4948
79.8000 51.8936
79.8100 50.9491
79.8200 55.3906
79.8300 39.5676
79.8400 51.8496
79.8500 52.2535
79.8600 58.1179
79.8700 49.4013
79.8800 45.8477
79.8900 53.3613
79.9000 50.6243
79.9100 55.3507
79.9200 46.9978
79.9300 51.4591
79.9400 46.0096
79.9500 48.0005
79.9600 55.2147
79.9700 38.7594
79.9800 60.1511
79.9900 58.7610
80.0000 56.4828
80.0100 55.9930
80.0200 69.7635
80.0300 52.9439
80.0400 54.2033
80.0500 62.9031
80.0600 47.9000
80.0700 46.5543
80.0800 46.4321
80.0900 52.1116
80.1000 46.3102
80.1100 47.2532
80.1200 43.5434
80.1300 46.7371
80.1400 56.7384
80.1500 58.9136
80.1600 47.9317
80.1700 55.4702
80.1800 62.2017
80.1900 61.2605
80.2000 53.4479
80.2100 64.2621
80.2200 53.9168
80.2300 46.3320
80.2400 49.4567
80.2500 47.5870
80.2600 43.3818
80.2700 44.3351
80.2800 50.6645
80.2900 53.6244
80.3000 55.6549
80.3100 71.1784
80.3200 55.8077
80.3300 58.9949
80.3400 49.8065
80.3500 45.7791
80.3600 56.2505
80.3700 48.7275
80.3800 49.6009
80.3900 48.2410
80.4000 53.0492
80.4100 52.3927
80.4200 55.9853
80.4300 49.4580
80.4400 54.6835
80.4500 47.2949
80.4600 40.0504
80.4700 42.7547
80.4800 45.4780
80.4900 51.5005
80.5000 55.7048
80.5100 63.0040
80.5200 51.9556
80.5300 49.4713
80.5400 54.7375
80.5500 56.5106
80.5600 62.8418
80.5700 51.0383
80.5800 58.2775
80.5900 52.4413
80.6000 62.5936
80.6100 46.0470
80.6200 74.2024
80.6300 48.8157
80.6400 58.3508
80.6500 63.6297
80.6600 52.8798
80.6700 50.9788
80.6800 62.2565
80.6900 55.2622
80.7000 53.8449
80.7100 63.1640
80.7200 45.7546
80.7300 54.2927
80.7400 55.7929
80.7500 47.7917
80.7600 56.8287
80.7700 47.3966
80.7800 41.6119
80.7900 56.2623
80.8000 56.6387
80.8100 60.0251
80.8200 59.9911
80.8300 44.5161
80.8400 47.6767
80.8500 51.6542
80.8600 56.1616
80.8700 51.9491
80.8800 61.2256
80.8900 44.8750
80.9000 67.3909
80.9100 54.4912
80.9200 54.3189
80.9300 52.0337
80.9400 70.0118
80.9500 49.1165
80.9600 53.1989
80.9700 50.4390
80.9800 49.5457
80.9900 45.8622
81.0000 56.6822
81.0100 55.1906
81.0200 46.1132
81.0300 52.4747
81.0400 61.8738
81.0500 53.9607
81.0600 47.5555
81.0700 59.7305
81.0800 60.2125
81.0900 57.0620
81.1000 54.2517
81.1100 61.4948
81.1200 69.7211
81.1300 45.4981
81.1400 53.5161
81.1500 64.8320
81.1600 54.9074
81.1700 54.0769
81.1800 57.4986
81.1900 53.4582
81.2000 55.5960
81.2100 61.0985
81.2200 60.9544
81.2300 51.1624
81.2400 50.8383
81.2500 61.6063
81.2600 59.0085
81.2700 62.8213
81.2800 56.5935
81.2900 43.8244
81.3000 50.9728
81.3100 62.8767
81.3200 47.8491
81.3300 57.2799
81.3400 66.6124
81.3500 57.0376
81.3600 52.4452
81.3700 54.0501
81.3800 62.8176
81.3900 52.1552
81.4000 43.5351
81.4100 52.0870
81.4200 52.3287
81.4300 65.0318
81.4400 55.5157
81.4500 51.7874
81.4600 55.5070
81.4700 53.5281
81.4800 51.0209
81.4900 48.3930
81.5000 50.0740
81.5100 57.0009
81.5200 70.4153
81.5300 54.7247
81.5400 64.2036
81.5500 54.7812
81.5600 56.3691
81.5700 68.5122
81.5800 71.0227
81.5900 66.7880
81.6000 63.6838
81.6100 70.7046
81.6200 60.8454
81.6300 65.0187
81.6400 62.8901
81.6500 64.5229
81.6600 78.5947
81.6700 73.9625
81.6800 63.0574
81.6900 83.6074
81.7000 81.4219
81.7100 78.1483
81.7200 80.1185
81.7300 98.9813
81.7400 89.2926
81.7500 71.0306
81.7600 98.6460
81.7700 99.7218
81.7800 98.3053
81.7900 93.7430
81.8000 101.6965
81.8100 115.0099
81.8200 119.5922
81.8300 115.0798
81.8400 129.3212
81.8500 126.4284
81.8600 147.3976
81.8700 149.5352
81.8800 137.0853
81.8900 183.5337
81.9000 152.0546
81.9100 194.4608
81.9200 180.6072
81.9300 224.4941
81.9400 229.1326
81.9500 239.6764
81.9600 285.6717
81.9700 293.9706
81.9800 326.6273
81.9900 349.5854
82.0000 359.8022
82.0100 379.2536
82.0200 373.1161
82.0300 420.0118
82.0400 385.1581
82.0500 406.8858
82.0600 420.2374
82.0700 389.9403
82.0800 398.7842
82.0900 405.7141
82.1000 400.6253
82.1100 383.7455
82.1200 338.2661
82.1300 351.0015
82.1400 324.5867
82.1500 307.0760
82.1600 251.2933
82.1700 258.5081
82.1800 238.3401
82.1900 215.3903
82.2000 219.8434
82.2100 199.9381
82.2200 185.4000
82.2300 155.5603
82.2400 157.7307
82.2500 128.0903
82.2600 122.2854
82.2700 106.4717
82.2800 96.4498
82.2900 105.5646
82.3000 80.6126
82.3100 94.8125
82.3200 91.2188
82.3300 77.0662
82.3400 84.1622
82.3500 70.5968
82.3600 78.5219
82.3700 64.2077
82.3800 69.5378
82.3900 79.1957
82.4000 71.1832
82.4100 69.1371
82.4200 75.3841
82.4300 53.7711
82.4400 64.8237
82.4500 74.5336
82.4600 64.2674
82.4700 54.2285
82.4800 78.0343
82.4900 71.3873
82.5000 60.1645
82.5100 65.4528
82.5200 57.3384
82.5300 54.1915
82.5400 58.8665
82.5500 67.1543
82.5600 55.7903
82.5700 58.9997
82.5800 44.9769
82.5900 56.1502
82.6000 74.3140
82.6100 61.6653
82.6200 55.6520
82.6300 61.4064
82.6400 58.6533
82.6500 67.0943
82.6600 55.4021
82.6700 59.3413
82.6800 67.3278
82.6900 58.4717
82.7000 58.2969
82.7100 43.4879
82.7200 55.0638
82.7300 64.1939
82.7400 69.3825
82.7500 60.9132
82.7600 59.7895
82.7700 59.5861
82.7800 54.9889
82.7900 56.1572
82.8000 53.4322
82.8100 48.9108
82.8200 61.4309
82.8300 62.4812
82.8400 59.7232
82.8500 53.0806
82.8600 46.1847
82.8700 52.9598
82.8800 59.3536
82.8900 62.6521
82.9000 59.0812
82.9100 55.4911
82.9200 60.0501
82.9300 53.6996
82.9400 45.1322
82.9500 48.5349
82.9600 63.7384
82.9700 55.3467
82.9800 64.2027
82.9900 49.2739
83.0000 52.9227
83.0100 65.8122
83.0200 52.7732
83.0300 52.9514
83.0400 42.0502
83.0500 53.7884
83.0600 52.5900
83.0700 51.1364
83.0800 50.4099
83.0900 56.0587
83.1000 58.9660
83.1100 56.2179
83.1200 65.7835
83.1300 46.4200
83.1400 45.1685
83.1500 55.2023
83.1600 54.1436
83.1700 60.6933
83.1800 54.6707
83.1900 57.2924
83.2000 61.9510
83.2100 67.7671
83.2200 54.0056
83.2300 59.4353
83.2400 56.3796
83.2500 57.4306
83.2600 40.2377
83.2700 45.4660
83.2800 43.3817
83.2900 56.3048
83.3000 61.8523
83.3100 57.4716
83.3200 48.4202
83.3300 45.6820
83.3400 53.2187
83.3500 61.8282
83.3600 51.4479
83.3700 49.7548
83.3800 58.5170
83.3900 49.6766
83.4000 49.2593
83.4100 48.4453
83.4200 53.6793
83.4300 57.7404
83.4400 41.0531
83.4500 41.8658
83.4600 57.9252
83.4700 55.5148
83.4800 51.8114
83.4900 47.6553
83.5000 56.2109
83.5100 45.7509
83.5200 56.9183
83.5300 59.6580
83.5400 51.8648
83.5500 56.8159
83.5600 50.6484
83.5700 56.0351
83.5800 49.6940
83.5900 49.4025
83.6000 56.8405
83.6100 60.1229
83.6200 56.1355
83.6300 52.0763
83.6400 51.9808
83.6500 43.9446
83.6600 55.5666
83.6700 50.9295
83.6800 63.8542
83.6900 46.4140
83.7000 65.1332
83.7100 54.1629
83.7200 58.0864
83.7300 34.2233
83.7400 60.3626
83.7500 48.7626
83.7600 56.8410
83.7700 46.1926
83.7800 51.0268
83.7900 39.3294
83.8000 42.8741
83.8100 46.7826
83.8200 63.4921
83.8300 50.5566
83.8400 58.3182
83.8500 52.0869
83.8600 54.8379
83.8700 60.1893
83.8800 44.4653
83.8900 52.4603
83.9000 56.6997
83.9100 57.5891
83.9200 51.8167
83.9300 56.6217
83.9400 58.6713
83.9500 54.3582
83.9600 50.9697
83.9700 52.7820
83.9800 50.8697
83.9900 49.7157
84.0000 51.3453
84.0100 44.2697
84.0200 52.4895
84.0300 59.0197
84.0400 64.5990
84.0500 60.9433
84.0600 54.5247
84.0700 43.1535
84.0800 49.3009
84.0900 54.5375
84.1000 54.2401
84.1100 48.3004
84.1200 50.2459
84.1300 55.6069
84.1400 50.8278
84.1500 43.6870
84.1600 53.6361
84.1700 50.0831
84.1800 52.8099
84.1900 50.9861
84.2000 42.4660
84.2100 60.4372
84.2200 45.7885
84.2300 42.0692
84.2400 54.6649
84.2500 46.5387
84.2600 50.6719
84.2700 66.4136
84.2800 53.0111
84.2900 49.2789
84.3000 41.4401
84.3100 50.9603
84.3200 52.2688
84.3300 46.7068
84.3400 50.6734
84.3500 51.0364
84.3600 31.5684
84.3700 54.6338
84.3800 53.3812
84.3900 59.8519
84.4000 51.2762
84.4100 50.2202
84.4200 48.9040
84.4300 47.9351
84.4400 58.9741
84.4500 51.6321
84.4600 48.0637
84.4700 47.4066
84.4800 59.5222
84.4900 51.3447
84.5000 55.6812
84.5100 46.8890
84.5200 56.7397
84.5300 58.3633
84.5400 52.6079
84.5500 44.2383
84.5600 43.2708
84.5700 39.2381
84.5800 57.0778
84.5900 52.0971
84.6000 50.5753
84.6100 43.5421
84.6200 44.5785
84.6300 54.2664
84.6400 47.1500
84.6500 52.1857
84.6600 56.9619
84.6700 48.5767
84.6800 58.6317
84.6900 53.7812
84.7000 50.5272
84.7100 51.7570
84.7200 49.0704
84.7300 46.0061
84.7400 46.8426
84.7500 52.2494
84.7600 48.5538
84.7700 58.0601
84.7800 63.6120
84.7900 51.1246
84.8000 48.5481
84.8100 48.5236
84.8200 39.8916
84.8300 43.6721
84.8400 50.2068
84.8500 42.5205
84.8600 64.8891
84.8700 56.4691
84.8800 62.1560
84.8900 48.6331
84.9000 44.2927
84.9100 44.7207
84.9200 50.0687
84.9300 40.7290
84.9400 52.8381
84.9500 58.2803
84.9600 51.9894
84.9700 54.2654
84.9800 49.3168
84.9900 45.1798
85.0000 47.9237
85.0100 59.5548
85.0200 48.1181
85.0300 53.7894
85.0400 52.6599
85.0500 51.8245
85.0600 48.4303
85.0700 39.2685
85.0800 65.3290
85.0900 60.9689
85.1000 63.0789
85.1100 52.1173
85.1200 42.3272
85.1300 59.0246
85.1400 65.1674
85.1500 53.2495
85.1600 50.8801
85.1700 54.3366
85.1800 59.8863
85.1900 36.0881
85.2000 43.5587
85.2100 42.8002
85.2200 45.5418
85.2300 52.2000
85.2400 62.1923
85.2500 50.4989
85.2600 51.2372
85.2700 36.9630
85.2800 57.6684
85.2900 45.4301
85.3000 38.2964
85.3100 60.0283
85.3200 59.4941
85.3300 49.1929
85.3400 50.7073
85.3500 38.9102
85.3600 47.6237
85.3700 44.0409
85.3800 53.9049
85.3900 55.4333
85.4000 49.5557
85.4100 58.7541
85.4200 56.3383
85.4300 39.5562
85.4400 46.5875
85.4500 41.1995
85.4600 46.9154
85.4700 51.0982
85.4800 69.5573
85.4900 46.6353
85.5000 48.0910
85.5100 45.5399
85.5200 48.6280
85.5300 43.2896
85.5400 41.0816
85.5500 51.9587
85.5600 58.1592
85.5700 47.7838
85.5800 53.2984
85.5900 53.3775
85.6000 52.4259
85.6100 50.1938
85.6200 38.2411
85.6300 57.6031
85.6400 57.3812
85.6500 54.2279
85.6600 51.0610
85.6700 56.9847
85.6800 46.7442
85.6900 42.4879
85.7000 52.1810
85.7100 54.5506
85.7200 47.7428
85.7300 52.7615
85.7400 50.9529
85.7500 54.6926
85.7600 59.7807
85.7700 48.4419
85.7800 52.5726
85.7900 43.4956
85.8000 38.9987
85.8100 50.7286
85.8200 45.9003
85.8300 48.1664
85.8400 52.8843
85.8500 49.5713
85.8600 56.5532
85.8700 50.3208
85.8800 53.1027
85.8900 43.6892
85.9000 60.2397
85.9100 61.4963
85.9200 47.2672
85.9300 55.2428
85.9400 52.7860
85.9500 46.2398
85.9600 55.4911
85.9700 46.9183
85.9800 51.5854
85.9900 59.9970
86.0000 47.4888
86.0100 52.5704
86.0200 47.4927
86.0300 46.7979
86.0400 51.2995
86.0500 45.2502
86.0600 46.2871
86.0700 47.2021
86.0800 59.6187
86.0900 48.6837
86.1000 45.3313
86.1100 36.3368
86.1200 54.9606
86.1300 48.1054
86.1400 57.5814
86.1500 37.0424
86.1600 46.9733
86.1700 52.9752
86.1800 52.1122
86.1900 43.2315
86.2000 53.5110
86.2100 56.0935
86.2200 42.9457
86.2300 56.8476
86.2400 58.8130
86.2500 56.1805
86.2600 40.3006
86.2700 53.3887
86.2800 53.5063
86.2900 59.8627
86.3000 55.8223
86.3100 48.0543
86.3200 46.7153
86.3300 51.9127
86.3400 58.4895
86.3500 50.6849
86.3600 56.7456
86.3700 51.8784
86.3800 55.8820
86.3900 49.3502
86.4000 53.6000
86.4100 55.1374
86.4200 54.1709
86.4300 54.2929
86.4400 51.0770
86.4500 52.7657
86.4600 57.0998
86.4700 64.0533
86.4800 53.6180
86.4900 53.4003
86.5000 62.4801
86.5100 52.1416
86.5200 59.7590
86.5300 59.6421
86.5400 51.6844
86.5500 55.9370
86.5600 52.4905
86.5700 35.5772
86.5800 48.9612
86.5900 59.5516
86.6000 49.4207
86.6100 42.7376
86.6200 44.0740
86.6300 55.4363
86.6400 42.6879
86.6500 40.2515
86.6600 51.1635
86.6700 66.1981
86.6800 44.5882
86.6900 51.3313
86.7000 59.1406
86.7100 63.0245
86.7200 56.4137
86.7300 48.6916
86.7400 61.1142
86.7500 47.2737
86.7600 59.0521
86.7700 56.9770
86.7800 33.5853
86.7900 51.1302
86.8000 64.6248
86.8100 57.8922
86.8200 38.6162
86.8300 48.9683
86.8400 64.9425
86.8500 57.9442
86.8600 48.3647
86.8700 45.1332
86.8800 47.8176
86.8900 46.9294
86.9000 54.9386
86.9100 50.7690
86.9200 46.8901
86.9300 53.2222
86.9400 53.9933
86.9500 46.5139
86.9600 47.8360
86.9700 57.1930
86.9800 48.6425
86.9900 47.3355
87.0000 51.1182
87.0100 46.0236
87.0200 51.2549
87.0300 38.2673
87.0400 42.2964
87.0500 45.7272
87.0600 62.2044
87.0700 57.3410
87.0800 50.7821
87.0900 49.0282
87.1000 45.6606
87.1100 47.8797
87.1200 47.6500
87.1300 55.5842
87.1400 51.7108
87.1500 47.4960
87.1600 42.9094
87.1700 51.4584
87.1800 61.3042
87.1900 41.3679
87.2000 53.5000
87.2100 44.2367
87.2200 47.8390
87.2300 54.7950
87.2400 64.0529
87.2500 49.9498
87.2600 55.9186
87.2700 49.5445
87.2800 58.2130
87.2900 53.2132
87.3000 42.2236
87.3100 53.8275
87.3200 52.2836
87.3300 46.7173
87.3400 52.8724
87.3500 56.4331
87.3600 48.9961
87.3700 57.5096
87.3800 55.5790
87.3900 42.6732
87.4000 57.6647
87.4100 60.7219
87.4200 48.7957
87.4300 36.9650
87.4400 57.4865
87.4500 49.6185
87.4600 54.2057
87.4700 52.5039
87.4800 40.5070
87.4900 45.5496
87.5000 50.8349
87.5100 58.8860
87.5200 46.1774
87.5300 51.9969
87.5400 65.7464
87.5500 56.2769
87.5600 53.2212
87.5700 62.6038
87.5800 54.6789
87.5900 52.6058
87.6000 49.9433
87.6100 59.0285
87.6200 54.8848
87.6300 47.7417
87.6400 41.9117
87.6500 60.6738
87.6600 51.1668
87.6700 39.1393
87.6800 42.8407
87.6900 44.3236
87.7000 56.4803
87.7100 51.5955
87.7200 46.7014
87.7300 58.3620
87.7400 50.7925
87.7500 50.0452
87.7600 46.3629
87.7700 61.7069
87.7800 49.6198
87.7900 47.9663
87.8000 57.0182
87.8100 39.9635
87.8200 49.4979
87.8300 47.9312
87.8400 48.1062
87.8500 46.8665
87.8600 47.9351
87.8700 51.2444
87.8800 60.5636
87.8900 54.9411
87.9000 48.0310
87.9100 50.4864
87.9200 49.5930
87.9300 51.8697
87.9400 50.3346
87.9500 55.1878
87.9600 57.3872
87.9700 54.1939
87.9800 40.9896
87.9900 54.7114
88.0000 45.1132
88.0100 58.3219
88.0200 60.8106
88.0300 37.7835
88.0400 38.5284
88.0500 61.2922
88.0600 38.4946
88.0700 41.9222
88.0800 54.4956
88.0900 59.3309
88.1000 54.4338
88.1100 56.2977
88.1200 56.1620
88.1300 59.9415
88.1400 51.1740
88.1500 52.9095
88.1600 54.3677
88.1700 47.5898
88.1800 56.6925
88.1900 53.8500
88.2000 65.7726
88.2100 58.6787
88.2200 47.6629
88.2300 58.1285
88.2400 49.9765
88.2500 49.3145
88.2600 53.1784
88.2700 51.7849
88.2800 48.9740
88.2900 48.7278
88.3000 46.1930
88.3100 47.6415
88.3200 45.4604
88.3300 47.7903
88.3400 45.9323
88.3500 53.7145
88.3600 61.0683
88.3700 57.5945
88.3800 52.4591
88.3900 45.1963
88.4000 47.8867
88.4100 40.6643
88.4200 47.3819
88.4300 48.0656
88.4400 52.0903
88.4500 50.0058
88.4600 44.2278
88.4700 37.6974
88.4800 45.6224
88.4900 47.8568
88.5000 40.4271
88.5100 51.5200
88.5200 56.6691
88.5300 49.7870
88.5400 48.4298
88.5500 55.9912
88.5600 42.5875
88.5700 55.7770
88.5800 48.5202
88.5900 54.1877
88.6000 43.8309
88.6100 50.7590
88.6200 44.8493
88.6300 48.7808
88.6400 57.6585
88.6500 57.7640
88.6600 43.0273
88.6700 50.4335
88.6800 47.6254
88.6900 62.9762
88.7000 56.6731
88.7100 54.2373
88.7200 37.2265
88.7300 56.6606
88.7400 51.0032
88.7500 40.0016
88.7600 52.3130
88.7700 52.0027
88.7800 43.6596
88.7900 56.6404
88.8000 51.2200
88.8100 62.2561
88.8200 57.0205
88.8300 50.3236
88.8400 46.3215
88.8500 40.7038
88.8600 49.7348
88.8700 55.7856
88.8800 51.3326
88.8900 51.8004
88.9000 59.5794
88.9100 39.3285
88.9200 51.0158
88.9300 39.6627
88.9400 54.3877
88.9500 60.0422
88.9600 53.5301
88.9700 52.9007
88.9800 46.9193
88.9900 42.8497
89.0000 55.3848
89.0100 41.6662
89.0200 44.5014
89.0300 45.2526
89.0400 51.0722
89.0500 46.7223
89.0600 41.1190
89.0700 57.4029
89.0800 47.1831
89.0900 58.2812
89.1000 64.9150
89.1100 41.4860
89.1200 58.7416
89.1300 55.3875
89.1400 52.4212
89.1500 52.9154
89.1600 55.0551
89.1700 59.1546
89.1800 47.3934
89.1900 55.9549
89.2000 51.5519
89.2100 54.2303
89.2200 56.0849
89.2300 41.4004
89.2400 53.7199
89.2500 59.4677
89.2600 46.8016
89.2700 42.2511
89.2800 46.6505
89.2900 49.7142
89.3000 55.5490
89.3100 41.6361
89.3200 44.5558
89.3300 52.5184
89.3400 55.3125
89.3500 50.0354
89.3600 41.6418
89.3700 45.6484
89.3800 40.1587
89.3900 52.0430
89.4000 54.2391
89.4100 50.1476
89.4200 51.8504
89.4300 51.8179
89.4400 59.8523
89.4500 48.7958
89.4600 49.0166
89.4700 46.6121
89.4800 50.7896
89.4900 49.3043
89.5000 42.5856
89.5100 52.1094
89.5200 53.0725
89.5300 56.3669
89.5400 45.8655
89.5500 48.0806
89.5600 49.7802
89.5700 40.0308
89.5800 56.6894
89.5900 55.8479
89.6000 61.2044
89.6100 53.8694
89.6200 52.8739
89.6300 43.9113
89.6400 48.2806
89.6500 55.5383
89.6600 52.9555
89.6700 56.2348
89.6800 43.1827
89.6900 52.8783
89.7000 58.9162
89.7100 45.3280
89.7200 48.1592
89.7300 50.1661
89.7400 53.2320
89.7500 47.4412
89.7600 42.4702
89.7700 58.8307
89.7800 59.6635
89.7900 53.0457
89.8000 57.1295
89.8100 62.7023
89.8200 54.8017
89.8300 49.9635
89.8400 55.0304
89.8500 53.2564
89.8600 41.6269
89.8700 47.9363
89.8800 53.8724
89.8900 52.4350
89.9000 50.7476
89.9100 42.1532
89.9200 60.9501
89.9300 45.6095
89.9400 55.4669
89.9500 60.2342
89.9600 51.0394
89.9700 55.8723
89.9800 60.8155
89.9900 43.2052
90.0000 59.4034
90.0100 57.5331
90.0200 53.2475
90.0300 51.9643
90.0400 42.1097
90.0500 57.0104
90.0600 49.6804
90.0700 47.9830
90.0800 42.1640
90.0900 57.7492
90.1000 52.2168
90.1100 53.5381
90.1200 49.8539
90.1300 47.0240
90.1400 68.3897
90.1500 59.0708
90.1600 51.4602
90.1700 55.5245
90.1800 43.3951
90.1900 53.5038
90.2000 53.7338
90.2100 46.0635
90.2200 44.1920
90.2300 49.1274
90.2400 43.6867
90.2500 48.6013
90.2600 50.0783
90.2700 59.3360
90.2800 41.5907
90.2900 43.2728
90.3000 48.7684
90.3100 50.4775
90.3200 46.4870
90.3300 54.9860
90.3400 68.3420
90.3500 62.8908
90.3600 58.5529
90.3700 51.9025
90.3800 62.8895
90.3900 58.5812
90.4000 49.5553
90.4100 52.9596
90.4200 55.3918
90.4300 49.3899
90.4400 51.4272
90.4500 53.0191
90.4600 54.9418
90.4700 50.0285
90.4800 48.4600
90.4900 51.2536
90.5000 48.2843
90.5100 59.6653
90.5200 59.0750
90.5300 55.4665
90.5400 44.8197
90.5500 54.6771
90.5600 53.1067
90.5700 52.5667
90.5800 58.6035
90.5900 54.1146
90.6000 58.2897
90.6100 53.6736
90.6200 53.1683
90.6300 60.3018
90.6400 55.0728
90.6500 44.5831
90.6600 49.5251
90.6700 58.1583
90.6800 57.3720
90.6900 58.1759
90.7000 58.0284
90.7100 56.8287
90.7200 44.9483
90.7300 45.1597
90.7400 58.9976
90.7500 51.6071
90.7600 46.0621
90.7700 56.6950
90.7800 60.1796
90.7900 51.4273
90.8000 50.2457
90.8100 47.7117
90.8200 56.0690
90.8300 53.7559
90.8400 58.1276
90.8500 46.3865
90.8600 54.1379
90.8700 56.5922
90.8800 57.0460
90.8900 64.1961
90.9000 44.9116
90.9100 51.0894
90.9200 42.8585
90.9300 55.8891
90.9400 49.6602
90.9500 42.4246
90.9600 46.5672
90.9700 58.8133
90.9800 63.6739
90.9900 46.7154
91.0000 51.7193
91.0100 62.7022
91.0200 49.1695
91.0300 50.6978
91.0400 46.4459
91.0500 50.2339
91.0600 53.9104
91.0700 63.5664
91.0800 45.6990
91.0900 60.1519
91.1000 50.2726
91.1100 43.5324
91.1200 55.9003
91.1300 38.4942
91.1400 53.3518
91.1500 49.0205
91.1600 44.8611
91.1700 48.9791
91.1800 48.0668
91.1900 50.8225
91.2000 56.9144
91.2100 39.6794
91.2200 40.3744
91.2300 51.0626
91.2400 51.2554
91.2500 62.3289
91.2600 48.9763
91.2700 52.4438
91.2800 53.4697
91.2900 47.5555
91.3000 42.2133
91.3100 55.5564
91.3200 54.3130
91.3300 48.1583
91.3400 38.1094
91.3500 56.4630
91.3600 44.4712
91.3700 59.2602
91.3800 51.3991
91.3900 40.0262
91.4000 51.5960
91.4100 47.1622
91.4200 46.6197
91.4300 42.5400
91.4400 46.0586
91.4500 72.3061
91.4600 45.7261
91.4700 52.5824
91.4800 47.5965
91.4900 62.8054
91.5000 55.9363
91.5100 56.2608
91.5200 49.3179
91.5300 37.7206
91.5400 48.0991
91.5500 39.9667
91.5600 48.8918
91.5700 48.1258
91.5800 55.0312
91.5900 45.0616
91.6000 60.9668
91.6100 52.6408
91.6200 57.5687
91.6300 59.8551
91.6400 48.0575
91.6500 44.3601
91.6600 51.8574
91.6700 42.6226
91.6800 48.8241
91.6900 52.0128
91.7000 57.3451
91.7100 52.6944
91.7200 49.8225
91.7300 54.5274
91.7400 44.4141
91.7500 50.7556
91.7600 44.5292
91.7700 52.1964
91.7800 43.8583
91.7900 57.0604
91.8000 47.8337
91.8100 55.9608
91.8200 61.1156
91.8300 53.7559
91.8400 51.1509
91.8500 47.5777
91.8600 50.2481
91.8700 45.8562
91.8800 51.2422
91.8900 65.0083
91.9000 56.5896
91.9100 55.7791
91.9200 56.1159
91.9300 52.9629
91.9400 43.2143
91.9500 50.3902
91.9600 60.2761
91.9700 46.1387
91.9800 45.5779
91.9900 48.6844
92.0000 49.7009
92.0100 46.7982
92.0200 58.7736
92.0300 47.4164
92.0400 45.7648
92.0500 47.3546
92.0600 54.5579
92.0700 61.0471
92.0800 58.1655
92.0900 57.3006
92.1000 58.4936
92.1100 45.4495
92.1200 53.2611
92.1300 56.5940
92.1400 52.4785
92.1500 59.1856
92.1600 51.4502
92.1700 55.9604
92.1800 57.3236
92.1900 53.4802
92.2000 46.5199
92.2100 54.8875
92.2200 48.3403
92.2300 52.8908
92.2400 55.9713
92.2500 49.6292
92.2600 56.8908
92.2700 53.4396
92.2800 56.6427
92.2900 42.5412
92.3000 46.2076
92.3100 39.5079
92.3200 46.0467
92.3300 63.5296
92.3400 70.1211
92.3500 50.8789
92.3600 61.5288
92.3700 41.5269
92.3800 56.6657
92.3900 50.7679
92.4000 44.9041
92.4100 41.9245
92.4200 53.5912
92.4300 55.7103
92.4400 53.0286
92.4500 50.4732
92.4600 47.0485
92.4700 47.9991
92.4800 56.8360
92.4900 56.9385
92.5000 40.0698
92.5100 44.9213
92.5200 51.3288
92.5300 55.7450
92.5400 45.5630
92.5500 67.5484
92.5600 63.4762
92.5700 59.9642
92.5800 52.1889
92.5900 46.3091
92.6000 40.4759
92.6100 51.1728
92.6200 47.5912
92.6300 45.1547
92.6400 46.4562
92.6500 47.3576
92.6600 50.7276
92.6700 53.5835
92.6800 55.7299
92.6900 55.6137
92.7000 38.8317
92.7100 37.0248
92.7200 43.6062
92.7300 50.7262
92.7400 57.9128
92.7500 51.8030
92.7600 51.9808
92.7700 43.7388
92.7800 57.3160
92.7900 49.0994
92.8000 46.3093
92.8100 42.9697
92.8200 61.0738
92.8300 45.0592
92.8400 53.5575
92.8500 47.5654
92.8600 56.2445
92.8700 51.8102
92.8800 56.0493
92.8900 59.6244
92.9000 57.1897
92.9100 64.2560
92.9200 47.8738
92.9300 47.3899
92.9400 55.6904
92.9500 42.1525
92.9600 56.4679
92.9700 52.4802
92.9800 54.6275
92.9900 50.7566
93.0000 46.2880
93.0100 45.6136
93.0200 52.1393
93.0300 50.4828
93.0400 48.1992
93.0500 60.2339
93.0600 52.3153
93.0700 45.2317
93.0800 58.9511
93.0900 54.7523
93.1000 50.0795
93.1100 58.0222
93.1200 47.3644
93.1300 48.6584
93.1400 42.8956
93.1500 37.6138
93.1600 60.2920
93.1700 57.0758
93.1800 54.4165
93.1900 51.6470
93.2000 47.7892
93.2100 53.1764
93.2200 63.6087
93.2300 35.3647
93.2400 49.2128
93.2500 42.2374
93.2600 55.5170
93.2700 64.0806
93.2800 60.0079
93.2900 62.7198
93.3000 66.6785
93.3100 56.1991
93.3200 41.4702
93.3300 40.6982
93.3400 71.5145
93.3500 53.0045
93.3600 45.4197
93.3700 52.9772
93.3800 50.8402
93.3900 60.5045
93.4000 63.6907
93.4100 42.8502
93.4200 48.3695
93.4300 62.2952
93.4400 56.1654
93.4500 42.3981
93.4600 51.4475
93.4700 60.3374
93.4800 41.5360
93.4900 50.8296
93.5000 49.4514
93.5100 58.2558
93.5200 55.6112
93.5300 47.2449
93.5400 49.7463
93.5500 42.7313
93.5600 45.6660
93.5700 40.5005
93.5800 50.2203
93.5900 43.8941
93.6000 45.4750
93.6100 48.1813
93.6200 41.1733
93.6300 65.6022
93.6400 58.9562
93.6500 54.2032
93.6600 57.2461
93.6700 55.7598
93.6800 52.8371
93.6900 57.7438
93.7000 53.2761
93.7100 52.1965
93.7200 45.3443
93.7300 58.0312
93.7400 48.1595
93.7500 51.4327
93.7600 53.9854
93.7700 52.3825
93.7800 59.1031
93.7900 59.5249
93.8000 52.0958
93.8100 42.1817
93.8200 50.5408
93.8300 40.5018
93.8400 53.8867
93.8500 53.6192
93.8600 47.6356
93.8700 47.9647
93.8800 50.3849
93.8900 57.2084
93.9000 44.8099
93.9100 48.7716
93.9200 44.6273
93.9300 40.0122
93.9400 46.3572
93.9500 52.9966
93.9600 39.6069
93.9700 52.5600
93.9800 56.6651
93.9900 50.8310
94.0000 49.3035
94.0100 60.0336
94.0200 50.3175
94.0300 47.4153
94.0400 60.1296
94.0500 47.5163
94.0600 40.4730
94.0700 45.8849
94.0800 43.9879
94.0900 52.6866
94.1000 47.7873
94.1100 44.1893
94.1200 45.3396
94.1300 57.2507
94.1400 53.2117
94.1500 50.1954
94.1600 57.4493
94.1700 57.8605
94.1800 50.4663
94.1900 52.1787
94.2000 56.4178
94.2100 47.6075
94.2200 44.8243
94.2300 46.1080
94.2400 41.6470
94.2500 55.2612
94.2600 60.1978
94.2700 56.2015
94.2800 52.9485
94.2900 62.0045
94.3000 60.2015
94.3100 52.6177
94.3200 54.8799
94.3300 58.7621
94.3400 61.3703
94.3500 54.7395
94.3600 49.1900
94.3700 47.8729
94.3800 40.4094
94.3900 53.2912
94.4000 65.6696
94.4100 55.3681
94.4200 57.6006
94.4300 48.6275
94.4400 57.1197
94.4500 47.6907
94.4600 56.9298
94.4700 49.1830
94.4800 45.5150
94.4900 51.4122
94.5000 56.6100
94.5100 59.9032
94.5200 66.1631
94.5300 46.9760
94.5400 49.5528
94.5500 47.6141
94.5600 43.8475
94.5700 47.0747
94.5800 46.4329
94.5900 51.7585
94.6000 52.8632
94.6100 56.3452
94.6200 48.1715
94.6300 50.3056
94.6400 55.3330
94.6500 52.1907
94.6600 55.0995
94.6700 54.7161
94.6800 63.6904
94.6900 43.3913
94.7000 63.0444
94.7100 50.3795
94.7200 56.4146
94.7300 56.8522
94.7400 49.1149
94.7500 54.6026
94.7600 64.0981
94.7700 62.7103
94.7800 55.4425
94.7900 54.4658
94.8000 55.4984
94.8100 54.3959
94.8200 44.8604
94.8300 61.1304
94.8400 61.8551
94.8500 49.4756
94.8600 39.0965
94.8700 55.8532
94.8800 53.7983
94.8900 48.2277
94.9000 59.4905
94.9100 50.8499
94.9200 62.6624
94.9300 53.1633
94.9400 48.2836
94.9500 37.8822
94.9600 55.5032
94.9700 57.7162
94.9800 64.5369
94.9900 53.2075
95.0000 36.5132
95.0100 41.2608
95.0200 37.5949
95.0300 44.7258
95.0400 49.4564
95.0500 59.6104
95.0600 55.1383
95.0700 47.2638
95.0800 50.5509
95.0900 50.2632
95.1000 51.2643
95.1100 52.2477
95.1200 58.0613
95.1300 46.8902
95.1400 44.5527
95.1500 68.6935
95.1600 42.5861
95.1700 50.8469
95.1800 43.1369
95.1900 49.4174
95.2000 44.0856
95.2100 46.6576
95.2200 41.5160
95.2300 63.5786
95.2400 50.4037
95.2500 60.5794
95.2600 39.8362
95.2700 48.2020
95.2800 48.4797
95.2900 57.7512
95.3000 46.6886
95.3100 50.1968
95.3200 55.6892
95.3300 55.6792
95.3400 53.8997
95.3500 63.1032
95.3600 54.4694
95.3700 55.7188
95.3800 48.3563
95.3900 53.4553
95.4000 45.6103
95.4100 57.1748
95.4200 47.3312
95.4300 47.1698
95.4400 54.3813
95.4500 50.0086
95.4600 48.0050
95.4700 51.2961
95.4800 49.5789
95.4900 53.3726
95.5000 51.5465
95.5100 55.7105
95.5200 53.4290
95.5300 48.5200
95.5400 38.4401
95.5500 35.9139
95.5600 36.2939
95.5700 43.2864
95.5800 54.3223
95.5900 54.8037
95.6000 53.8973
95.6100 55.0777
95.6200 52.8864
95.6300 51.3092
95.6400 45.9750
95.6500 55.9706
95.6600 53.1991
95.6700 54.5798
95.6800 46.1236
95.6900 54.8057
95.7000 52.0002
95.7100 60.3438
95.7200 46.6995
95.7300 55.6766
95.7400 48.3251
95.7500 41.6838
95.7600 55.2034
95.7700 58.0502
95.7800 51.5183
95.7900 45.2325
95.8000 55.8307
95.8100 58.0550
95.8200 51.1062
95.8300 57.5490
95.8400 45.7002
95.8500 56.1507
95.8600 48.4158
95.8700 52.2183
95.8800 47.7431
95.8900 53.3006
95.9000 53.7304
95.9100 60.6567
95.9200 52.7202
95.9300 46.3869
95.9400 48.3702
95.9500 46.3705
95.9600 49.2080
95.9700 43.7413
95.9800 52.6630
95.9900 54.2938
96.0000 48.4185
96.0100 54.6381
96.0200 42.3610
96.0300 55.9564
96.0400 58.0254
96.0500 62.8094
96.0600 63.5569
96.0700 51.8904
96.0800 48.8586
96.0900 55.1051
96.1000 54.6658
96.1100 48.4512
96.1200 58.1623
96.1300 47.5115
96.1400 50.4097
96.1500 48.6054
96.1600 44.3548
96.1700 59.5494
96.1800 59.2494
96.1900 53.7856
96.2000 58.2769
96.2100 69.4035
96.2200 57.0091
96.2300 51.9068
96.2400 53.8591
96.2500 62.8095
96.2600 53.7211
96.2700 59.6329
96.2800 51.8198
96.2900 54.5940
96.3000 38.6003
96.3100 54.4492
96.3200 41.1620
96.3300 47.1557
96.3400 44.6679
96.3500 57.1040
96.3600 53.1467
96.3700 54.5205
96.3800 62.5260
96.3900 57.6699
96.4000 50.1920
96.4100 51.1952
96.4200 53.8880
96.4300 60.6499
96.4400 52.7584
96.4500 56.6987
96.4600 47.7755
96.4700 47.1779
96.4800 37.0228
96.4900 49.9516
96.5000 54.0799
96.5100 40.7010
96.5200 47.3240
96.5300 46.8882
96.5400 38.3054
96.5500 51.6476
96.5600 49.7076
96.5700 51.9282
96.5800 68.4850
96.5900 48.9155
96.6000 38.4808
96.6100 56.9463
96.6200 50.5919
96.6300 54.9295
96.6400 45.3180
96.6500 51.0326
96.6600 48.8756
96.6700 56.4314
96.6800 44.9498
96.6900 57.3099
96.7000 42.1762
96.7100 52.5394
96.7200 47.3062
96.7300 49.6461
96.7400 48.9958
96.7500 47.6501
96.7600 64.1575
96.7700 44.9429
96.7800 64.3963
96.7900 52.9218
96.8000 55.8419
96.8100 50.3511
96.8200 47.8290
96.8300 40.7694
96.8400 49.3556
96.8500 55.5553
96.8600 57.2170
96.8700 51.7884
96.8800 50.5487
96.8900 51.8824
96.9000 52.3014
96.9100 54.5757
96.9200 45.7275
96.9300 40.8329
96.9400 54.3813
96.9500 45.4359
96.9600 47.7091
96.9700 44.8980
96.9800 34.9925
96.9900 47.8991
97.0000 62.6725
97.0100 51.9138
97.0200 49.4637
97.0300 44.0708
97.0400 53.4915
97.0500 68.5534
97.0600 51.5988
97.0700 63.5255
97.0800 57.3652
97.0900 66.5085
97.1000 58.3227
97.1100 51.9070
97.1200 63.2749
97.1300 57.7808
97.1400 60.2899
97.1500 47.2421
97.1600 57.8522
97.1700 48.8425
97.1800 41.8146
97.1900 41.5944
97.2000 50.4701
97.2100 47.6230
97.2200 54.6555
97.2300 58.4899
97.2400 53.1453
97.2500 57.2231
97.2600 56.3537
97.2700 55.3497
97.2800 47.5265
97.2900 42.3697
97.3000 40.9792
97.3100 41.8395
97.3200 49.2617
97.3300 42.9652
97.3400 50.1875
97.3500 55.0966
97.3600 47.3457
97.3700 43.3366
97.3800 51.4392
97.3900 52.6490
97.4000 59.6490
97.4100 50.7235
97.4200 43.4050
97.4300 52.9416
97.4400 55.6583
97.4500 49.2929
97.4600 46.6793
97.4700 43.6922
97.4800 57.7631
97.4900 50.6720
97.5000 63.8179
97.5100 53.0122
97.5200 56.3657
97.5300 62.9996
97.5400 44.9264
97.5500 44.9258
97.5600 58.5240
97.5700 60.0610
97.5800 41.5824
97.5900 66.9853
97.6000 47.5505
97.6100 55.6385
97.6200 50.5628
97.6300 58.5919
97.6400 55.7590
97.6500 53.7832
97.6600 55.2037
97.6700 59.3329
97.6800 51.8035
97.6900 53.3982
97.7000 53.2224
97.7100 46.7485
97.7200 46.5127
97.7300 65.8045
97.7400 52.5708
97.7500 52.6426
97.7600 64.1247
97.7700 49.2825
97.7800 59.1541
97.7900 58.4379
97.8000 52.1550
97.8100 41.6639
97.8200 53.9495
97.8300 51.6829
97.8400 53.9437
97.8500 54.6107
97.8600 50.5282
97.8700 58.3473
97.8800 47.8103
97.8900 61.4425
97.9000 58.7055
97.9100 54.9579
97.9200 62.3916
97.9300 56.3180
97.9400 69.2118
97.9500 54.1412
97.9600 56.0198
97.9700 52.7467
97.9800 64.1884
97.9900 60.7076
98.0000 58.2835
98.0100 45.1288
98.0200 72.3630
98.0300 69.2394
98.0400 54.4989
98.0500 72.0113
98.0600 50.0720
98.0700 53.9377
98.0800 65.1138
98.0900 58.2381
98.1000 52.5556
98.1100 62.9035
98.1200 67.5214
98.1300 78.5677
98.1400 53.8280
98.1500 59.6586
98.1600 67.4014
98.1700 69.4102
98.1800 64.0512
98.1900 65.3790
98.2000 69.0728
98.2100 72.2549
98.2200 74.6955
98.2300 75.4217
98.2400 85.5129
98.2500 71.8878
98.2600 81.2360
98.2700 77.7863
98.2800 102.4446
98.2900 101.5441
98.3000 97.8152
98.3100 95.5477
98.3200 101.4743
98.3300 78.8121
98.3400 103.1991
98.3500 108.9437
98.3600 111.4127
98.3700 122.5921
98.3800 118.6584
98.3900 146.0601
98.4000 146.6758
98.4100 148.2382
98.4200 191.4129
98.4300 161.9462
98.4400 177.9541
98.4500 175.7659
98.4600 186.0696
98.4700 194.2085
98.4800 216.2281
98.4900 219.6206
98.5000 268.8799
98.5100 285.8083
98.5200 271.0883
98.5300 263.8354
98.5400 284.1482
98.5500 311.0415
98.5600 315.6407
98.5700 318.3421
98.5800 352.7890
98.5900 342.4517
98.6000 355.2399
98.6100 344.5474
98.6200 321.5372
98.6300 281.3144
98.6400 309.3736
98.6500 272.6694
98.6600 274.3104
98.6700 252.4961
98.6800 254.6662
98.6900 244.5968
98.7000 247.1290
98.7100 220.8066
98.7200 196.6180
98.7300 191.1742
98.7400 195.0613
98.7500 174.1968
98.7600 188.2372
98.7700 148.0822
98.7800 127.5043
98.7900 130.3018
98.8000 126.8376
98.8100 108.7586
98.8200 116.3674
98.8300 102.7984
98.8400 104.4011
98.8500 101.7497
98.8600 100.0792
98.8700 92.6816
98.8800 70.6029
98.8900 101.1523
98.9000 78.5522
98.9100 59.6424
98.9200 65.0182
98.9300 82.6237
98.9400 81.1629
98.9500 68.1637
98.9600 58.2342
98.9700 62.6742
98.9800 81.2776
98.9900 70.6935
99.0000 68.9354
99.0100 61.4737
99.0200 66.6379
99.0300 61.7001
99.0400 61.0436
99.0500 58.3006
99.0600 54.2203
99.0700 63.2448
99.0800 53.3074
99.0900 63.2100
99.1000 53.5884
99.1100 62.9678
99.1200 59.5323
99.1300 58.9315
99.1400 62.4533
99.1500 49.8371
99.1600 57.6165
99.1700 50.3850
99.1800 70.7787
99.1900 55.0182
99.2000 64.2569
99.2100 63.8854
99.2200 62.9663
99.2300 53.1715
99.2400 46.6101
99.2500 51.8599
99.2600 52.5182
99.2700 60.1377
99.2800 55.4384
99.2900 54.7564
99.3000 54.3027
99.3100 54.1028
99.3200 56.6475
99.3300 59.9115
99.3400 58.7268
99.3500 50.9419
99.3600 56.9510
99.3700 60.5950
99.3800 43.7941
99.3900 53.9162
99.4000 51.9389
99.4100 45.4618
99.4200 64.9547
99.4300 51.4618
99.4400 56.3433
99.4500 47.5150
99.4600 46.8409
99.4700 53.7405
99.4800 46.3966
99.4900 57.5167
99.5000 50.6112
99.5100 50.1225
99.5200 52.3589
99.5300 55.8683
99.5400 50.6622
99.5500 60.0157
99.5600 52.8384
99.5700 47.8666
99.5800 47.4555
99.5900 66.7794
99.6000 52.1768
99.6100 44.7658
99.6200 48.6324
99.6300 48.9595
99.6400 57.8648
99.6500 54.1829
99.6600 47.3784
99.6700 42.4734
99.6800 48.8477
99.6900 55.9462
99.7000 45.5519
99.7100 59.7731
99.7200 68.9526
99.7300 50.7711
99.7400 51.6452
99.7500 53.4310
99.7600 55.4793
99.7700 58.9211
99.7800 49.7266
99.7900 53.5330
99.8000 54.7713
99.8100 56.6686
99.8200 49.7250
99.8300 45.8788
99.8400 59.8863
99.8500 49.2436
99.8600 57.3573
99.8700 45.4386
99.8800 44.3332
99.8900 43.2393
99.9000 58.7368
99.9100 61.7405
99.9200 50.6788
99.9300 43.1328
99.9400 60.0166
99.9500 48.2453
99.9600 54.8940
99.9700 53.2678
99.9800 40.0003
99.9900 62.5531
100.0000 61.7747
100.0100 47.2340
100.0200 58.0792
100.0300 48.4195
100.0400 47.3677
100.0500 53.7664
100.0600 55.7626
100.0700 65.4818
100.0800 64.5300
100.0900 61.0488
100.1000 61.5558
100.1100 50.7419
100.1200 47.1772
100.1300 44.4210
100.1400 55.3403
100.1500 44.8364
100.1600 56.1560
100.1700 54.0027
100.1800 34.0685
100.1900 62.5951
100.2000 48.2434
100.2100 52.8728
100.2200 53.0213
100.2300 45.8160
100.2400 41.4609
100.2500 48.7397
100.2600 49.0792
100.2700 45.3643
100.2800 44.5425
100.2900 50.0240
100.3000 38.2709
100.3100 45.8449
100.3200 56.6835
100.3300 63.5195
100.3400 47.0505
100.3500 52.3781
100.3600 52.6354
100.3700 50.4505
100.3800 54.9990
100.3900 50.3562
100.4000 57.5990
100.4100 50.0364
100.4200 59.8536
100.4300 44.9409
100.4400 55.7335
100.4500 58.0985
100.4600 44.9269
100.4700 47.5499
100.4800 41.1109
100.4900 49.0061
100.5000 44.6993
100.5100 44.3601
100.5200 50.3565
100.5300 52.8364
100.5400 39.5368
100.5500 48.5833
100.5600 51.8892
100.5700 48.5048
100.5800 53.2215
100.5900 52.7794
100.6000 53.1932
100.6100 51.5830
100.6200 53.9799
100.6300 48.9644
100.6400 42.5604
100.6500 47.4778
100.6600 53.0811
100.6700 62.1192
100.6800 47.8144
100.6900 40.2916
100.7000 43.5432
100.7100 48.3020
100.7200 51.5935
100.7300 47.3849
100.7400 49.9092
100.7500 63.7247
100.7600 46.5785
100.7700 54.0644
100.7800 48.4671
100.7900 52.9939
100.8000 57.0070
100.8100 52.9095
100.8200 48.5715
100.8300 45.5011
100.8400 42.4611
100.8500 54.3910
100.8600 55.7952
100.8700 46.6724
100.8800 49.1376
100.8900 46.0721
100.9000 48.5820
100.9100 61.9978
100.9200 48.9321
100.9300 51.4315
100.9400 47.9090
100.9500 49.0467
100.9600 55.9957
100.9700 59.2557
100.9800 51.0485
100.9900 55.3148
101.0000 52.0235
101.0100 45.7928
101.0200 53.2780
101.0300 57.8400
101.0400 49.4169
101.0500 54.1438
101.0600 47.5424
101.0700 40.2868
101.0800 55.5272
101.0900 63.0116
101.1000 44.3997
101.1100 46.1983
101.1200 43.9609
101.1300 67.3937
101.1400 49.2452
101.1500 46.7920
101.1600 42.6017
101.1700 52.2801
101.1800 47.4500
101.1900 43.8964
101.2000 55.5883
101.2100 55.5539
101.2200 63.9383
101.2300 56.1778
101.2400 56.9445
101.2500 55.0948
101.2600 51.2997
101.2700 34.0470
101.2800 63.7534
101.2900 52.6378
101.3000 51.7538
101.3100 40.9660
101.3200 47.7388
101.3300 50.7635
101.3400 51.4735
101.3500 55.7026
101.3600 51.0894
101.3700 47.7894
101.3800 46.2275
101.3900 48.3646
101.4000 36.4615
101.4100 67.9687
101.4200 49.2531
101.4300 59.0088
101.4400 47.8027
101.4500 49.7056
101.4600 63.7886
101.4700 53.9918
101.4800 47.4702
101.4900 52.9912
101.5000 48.9870
101.5100 50.6609
101.5200 58.2644
101.5300 55.0750
101.5400 47.3194
101.5500 47.3617
101.5600 42.0091
101.5700 57.4660
101.5800 50.4493
101.5900 49.6733
101.6000 54.8723
101.6100 44.5471
101.6200 47.4808
101.6300 40.7490
101.6400 58.8163
101.6500 63.1697
101.6600 53.8244
101.6700 43.4509
101.6800 47.4427
101.6900 44.0903
101.7000 44.2735
101.7100 50.2343
101.7200 59.4757
101.7300 54.1730
101.7400 48.9193
101.7500 58.6304
101.7600 46.9663
101.7700 41.8150
101.7800 54.5394
101.7900 53.6303
101.8000 56.4274
101.8100 44.2271
101.8200 53.7386
101.8300 53.6737
101.8400 55.7187
101.8500 48.7885
101.8600 52.4031
101.8700 54.0443
101.8800 55.6648
101.8900 45.5928
101.9000 51.4837
101.9100 47.4095
101.9200 54.3944
101.9300 54.5146
101.9400 53.6931
101.9500 53.0498
101.9600 43.6207
101.9700 52.7759
101.9800 57.2999
101.9900 50.5073
102.0000 53.3274
102.0100 45.6241
102.0200 52.1725
102.0300 43.2456
102.0400 45.7497
102.0500 49.0967
102.0600 50.5669
102.0700 62.3696
102.0800 52.3589
102.0900 60.6578
102.1000 48.4267
102.1100 48.8495
102.1200 54.9031
102.1300 43.9250
102.1400 42.1473
102.1500 44.7419
102.1600 47.2643
102.1700 53.2773
102.1800 56.5278
102.1900 47.3716
102.2000 38.3609
102.2100 56.6433
102.2200 56.7393
102.2300 44.0830
102.2400 58.0956
102.2500 47.3858
102.2600 49.1055
102.2700 46.1620
102.2800 60.1006
102.2900 55.9577
102.3000 53.2577
102.3100 46.9242
102.3200 46.1739
102.3300 48.1812
102.3400 50.5484
102.3500 46.5928
102.3600 47.3019
102.3700 65.6950
102.3800 66.9000
102.3900 55.3830
102.4000 53.2455
102.4100 52.0657
102.4200 46.9059
102.4300 53.8422
102.4400 55.8245
102.4500 55.9425
102.4600 49.8477
102.4700 51.6574
102.4800 45.5856
102.4900 54.2647
102.5000 49.2750
102.5100 37.9097
102.5200 57.6138
102.5300 46.6110
102.5400 47.3052
102.5500 50.2711
102.5600 63.7251
102.5700 53.9654
102.5800 44.7829
102.5900 62.0513
102.6000 58.6213
102.6100 50.7553
102.6200 56.1132
102.6300 57.1822
102.6400 63.6555
102.6500 48.2884
102.6600 50.8042
102.6700 44.7031
102.6800 49.3880
102.6900 43.2858
102.7000 44.1389
102.7100 54.5637
102.7200 50.1657
102.7300 56.7599
102.7400 49.1361
102.7500 43.7640
102.7600 60.8442
102.7700 57.9806
102.7800 46.4995
102.7900 52.8550
102.8000 48.3161
102.8100 62.0114
102.8200 54.0026
102.8300 47.9098
102.8400 51.6647
102.8500 38.0445
102.8600 42.8096
102.8700 48.5662
102.8800 48.3764
102.8900 40.9095
102.9000 53.6649
102.9100 57.3954
102.9200 53.0596
102.9300 61.3075
102.9400 41.7078
102.9500 55.2267
102.9600 60.4743
102.9700 49.4150
102.9800 38.7078
102.9900 38.5936
103.0000 47.0561
103.0100 38.6660
103.0200 57.1964
103.0300 59.4578
103.0400 55.5340
103.0500 41.5131
103.0600 51.8379
103.0700 57.7388
103.0800 46.0574
103.0900 59.0373
103.1000 51.7131
103.1100 47.3367
103.1200 51.7348
103.1300 56.4594
103.1400 56.6443
103.1500 45.9479
103.1600 48.0348
103.1700 56.2313
103.1800 56.5131
103.1900 49.2333
103.2000 58.9826
103.2100 53.3500
103.2200 57.0217
103.2300 40.6646
103.2400 35.0670
103.2500 46.1477
103.2600 54.5547
103.2700 54.0000
103.2800 55.6350
103.2900 63.9438
103.3000 72.3399
103.3100 60.0316
103.3200 48.3649
103.3300 57.1666
103.3400 50.6505
103.3500 45.6106
103.3600 49.7112
103.3700 51.0513
103.3800 46.7921
103.3900 44.8921
103.4000 37.5572
103.4100 44.7193
103.4200 51.5939
103.4300 54.9816
103.4400 51.0642
103.4500 39.2427
103.4600 46.5037
103.4700 47.2274
103.4800 53.6608
103.4900 65.5597
103.5000 45.7456
103.5100 48.4848
103.5200 47.9193
103.5300 48.3057
103.5400 57.7537
103.5500 52.5830
103.5600 42.0244
103.5700 38.5579
103.5800 53.4444
103.5900 57.4694
103.6000 59.5054
103.6100 50.2207
103.6200 52.9293
103.6300 48.1769
103.6400 39.5544
103.6500 52.2756
103.6600 52.3294
103.6700 51.2963
103.6800 51.2560
103.6900 48.1106
103.7000 49.6373
103.7100 45.2830
103.7200 57.6664
103.7300 44.4027
103.7400 60.0570
103.7500 75.7203
103.7600 51.1862
103.7700 47.0789
103.7800 46.2529
103.7900 43.2532
103.8000 48.4902
103.8100 50.3961
103.8200 47.1367
103.8300 39.5011
103.8400 49.1142
103.8500 43.5360
103.8600 49.8202
103.8700 53.4156
103.8800 46.5481
103.8900 48.3699
103.9000 46.6215
103.9100 45.3136
103.9200 53.6448
103.9300 60.6218
103.9400 53.8130
103.9500 50.0159
103.9600 51.2561
103.9700 46.9016
103.9800 35.7339
103.9900 41.4894
104.0000 66.1435
104.0100 55.7940
104.0200 43.8982
104.0300 57.0103
104.0400 52.9835
104.0500 49.3913
104.0600 54.7008
104.0700 45.2986
104.0800 48.2878
104.0900 45.2984
104.1000 58.5504
104.1100 53.2004
104.1200 57.3868
104.1300 53.0048
104.1400 43.0735
104.1500 40.3132
104.1600 49.2547
104.1700 45.9409
104.1800 53.9608
104.1900 47.2690
104.2000 46.9645
104.2100 55.1919
104.2200 50.3289
104.2300 47.2227
104.2400 60.4154
104.2500 47.2227
104.2600 66.0412
104.2700 53.6175
104.2800 44.4270
104.2900 51.8184
104.3000 44.9369
104.3100 42.1740
104.3200 52.7693
104.3300 47.6969
104.3400 43.4218
104.3500 44.2587
104.3600 39.2714
104.3700 46.7433
104.3800 55.1407
104.3900 48.4882
104.4000 52.1298
104.4100 48.4342
104.4200 50.9606
104.4300 52.1695
104.4400 47.8037
104.4500 50.7137
104.4600 49.7883
104.4700 52.3774
104.4800 62.6127
104.4900 46.7625
104.5000 44.5109
104.5100 45.4249
104.5200 48.4310
104.5300 47.7021
104.5400 59.9679
104.5500 53.2165
104.5600 55.5646
104.5700 67.3887
104.5800 53.7674
104.5900 39.3371
104.6000 49.8152
104.6100 54.0294
104.6200 42.0986
104.6300 40.0043
104.6400 43.1714
104.6500 43.1823
104.6600 59.3187
104.6700 69.9224
104.6800 46.4953
104.6900 55.8634
104.7000 56.9550
104.7100 59.9233
104.7200 51.7691
104.7300 48.9410
104.7400 52.1460
104.7500 50.1855
104.7600 49.2977
104.7700 59.0806
104.7800 44.1214
104.7900 44.8780
104.8000 54.0811
104.8100 53.6384
104.8200 53.7206
104.8300 55.8771
104.8400 40.7806
104.8500 56.2826
104.8600 53.1458
104.8700 45.0235
104.8800 61.8374
104.8900 58.5738
104.9000 64.2497
104.9100 68.0853
104.9200 51.0366
104.9300 51.1374
104.9400 56.1841
104.9500 48.9197
104.9600 39.9959
104.9700 58.8050
104.9800 54.9207
104.9900 45.7767
105.0000 40.5074
105.0100 43.0416
105.0200 53.7887
105.0300 54.2075
105.0400 48.3203
105.0500 46.5195
105.0600 47.9365
105.0700 44.1569
105.0800 50.7803
105.0900 47.0729
105.1000 53.5316
105.1100 45.8580
105.1200 62.1593
105.1300 42.1654
105.1400 40.8076
105.1500 51.4466
105.1600 51.7766
105.1700 52.9124
105.1800 45.7742
105.1900 43.9256
105.2000 48.8231
105.2100 42.7628
105.2200 50.7945
105.2300 55.9209
105.2400 54.9444
105.2500 42.7140
105.2600 46.7730
105.2700 58.3503
105.2800 50.7161
105.2900 38.6274
105.3000 68.4458
105.3100 53.2572
105.3200 49.5971
105.3300 71.0840
105.3400 56.6502
105.3500 48.8181
105.3600 48.0065
105.3700 58.1426
105.3800 52.6080
105.3900 43.9948
105.4000 60.7231
105.4100 51.9191
105.4200 47.0537
105.4300 48.7341
105.4400 71.0687
105.4500 52.6311
105.4600 53.0142
105.4700 50.5621
105.4800 45.2249
105.4900 64.0048
105.5000 49.8506
105.5100 65.2051
105.5200 45.9372
105.5300 48.5223
105.5400 45.4944
105.5500 59.6091
105.5600 72.0218
105.5700 50.9111
105.5800 46.5820
105.5900 56.2218
105.6000 51.1389
105.6100 38.4560
105.6200 52.1117
105.6300 54.4139
105.6400 51.1989
105.6500 46.2833
105.6600 55.8818
105.6700 55.9036
105.6800 43.6405
105.6900 43.8292
105.7000 63.4858
105.7100 58.0043
105.7200 25.8925
105.7300 50.7661
105.7400 70.6661
105.7500 45.6809
105.7600 55.3467
105.7700 58.5626
105.7800 47.3173
105.7900 54.9352
105.8000 42.0910
105.8100 51.7744
105.8200 53.4044
105.8300 60.3812
105.8400 39.3120
105.8500 49.2928
105.8600 51.2740
105.8700 53.7724
105.8800 49.0069
105.8900 56.5847
105.9000 50.4727
105.9100 44.1037
105.9200 46.8293
105.9300 44.8392
105.9400 50.4370
105.9500 55.7608
105.9600 49.4730
105.9700 44.2380
105.9800 47.3216
105.9900 57.4755
106.0000 41.9846
106.0100 50.2734
106.0200 49.0868
106.0300 46.7471
106.0400 46.2062
106.0500 43.4920
106.0600 50.7579
106.0700 49.7996
106.0800 45.6661
106.0900 54.1128
106.1000 55.2311
106.1100 48.5575
106.1200 47.7205
106.1300 46.2810
106.1400 57.9555
106.1500 48.4550
106.1600 43.8535
106.1700 46.9521
106.1800 58.2301
106.1900 60.6976
106.2000 60.7118
106.2100 47.5508
106.2200 47.6413
106.2300 65.1832
106.2400 50.6508
106.2500 49.9133
106.2600 44.6559
106.2700 51.1470
106.2800 49.5155
106.2900 46.0956
106.3000 34.5044
106.3100 47.4720
106.3200 56.3707
106.3300 46.0167
106.3400 52.2878
106.3500 50.1962
106.3600 52.2194
106.3700 40.1245
106.3800 64.8247
106.3900 48.5009
106.4000 53.8990
106.4100 56.0379
106.4200 53.7483
106.4300 42.6295
106.4400 42.4650
106.4500 51.6710
106.4600 55.2847
106.4700 50.3590
106.4800 48.0743
106.4900 49.8812
106.5000 51.5976
106.5100 51.3747
106.5200 41.8391
106.5300 49.5964
106.5400 55.4604
106.5500 50.3540
106.5600 47.0272
106.5700 55.4536
106.5800 39.4639
106.5900 51.1046
106.6000 57.3037
106.6100 46.7946
106.6200 48.8853
106.6300 46.6934
106.6400 60.5877
106.6500 53.3554
106.6600 42.2078
106.6700 48.6177
106.6800 57.8966
106.6900 54.1226
106.7000 51.9288
106.7100 48.8253
106.7200 59.8539
106.7300 51.4078
106.7400 55.7269
106.7500 60.3488
106.7600 59.1784
106.7700 56.5732
106.7800 49.7938
106.7900 57.4171
106.8000 54.1539
106.8100 40.4389
106.8200 53.4694
106.8300 54.6762
106.8400 43.6448
106.8500 48.3410
106.8600 55.1508
106.8700 53.3788
106.8800 50.9902
106.8900 56.3752
106.9000 47.9891
106.9100 50.6038
106.9200 51.2853
106.9300 48.0050
106.9400 50.5064
106.9500 47.9537
106.9600 51.9237
106.9700 54.4105
106.9800 51.5862
106.9900 51.6565
107.0000 61.3254
107.0100 48.6473
107.0200 46.7675
107.0300 42.9027
107.0400 51.3833
107.0500 48.8333
107.0600 47.0807
107.0700 52.6021
107.0800 58.8184
107.0900 48.1178
107.1000 57.4611
107.1100 59.1330
107.1200 42.5829
107.1300 45.5843
107.1400 53.4316
107.1500 54.4623
107.1600 51.6396
107.1700 52.4350
107.1800 54.9912
107.1900 48.2637
107.2000 54.2857
107.2100 50.3101
107.2200 60.6759
107.2300 57.3502
107.2400 48.5054
107.2500 42.6609
107.2600 47.0458
107.2700 52.6233
107.2800 49.6099
107.2900 44.5269
107.3000 50.4710
107.3100 76.2452
107.3200 46.9305
107.3300 55.5476
107.3400 48.2470
107.3500 58.6645
107.3600 50.2096
107.3700 49.3065
107.3800 45.1610
107.3900 43.9943
107.4000 38.2752
107.4100 52.4987
107.4200 42.3061
107.4300 40.2380
107.4400 58.6422
107.4500 46.0613
107.4600 51.1841
107.4700 56.1120
107.4800 57.3069
107.4900 50.0519
107.5000 48.9662
107.5100 60.0381
107.5200 49.7860
107.5300 57.2978
107.5400 48.2050
107.5500 34.3455
107.5600 54.1809
107.5700 56.3626
107.5800 43.9086
107.5900 62.0088
107.6000 48.7898
107.6100 56.6462
107.6200 47.0483
107.6300 58.8465
107.6400 65.2032
107.6500 62.6980
107.6600 51.6035
107.6700 48.4610
107.6800 51.6646
107.6900 41.7344
107.7000 57.3768
107.7100 48.1070
107.7200 53.8381
107.7300 52.2022
107.7400 40.1917
107.7500 40.8850
107.7600 43.6771
107.7700 50.0473
107.7800 43.7972
107.7900 41.9654
107.8000 47.9622
107.8100 49.7451
107.8200 58.9799
107.8300 53.3211
107.8400 42.0459
107.8500 53.0609
107.8600 64.2083
107.8700 51.3939
107.8800 52.5842
107.8900 45.1465
107.9000 64.5254
107.9100 53.1298
107.9200 47.7617
107.9300 55.1260
107.9400 53.9612
107.9500 54.2561
107.9600 50.1428
107.9700 51.7512
107.9800 55.5345
107.9900 57.4342
108.0000 45.6821
108.0100 47.4424
108.0200 58.4333
108.0300 49.7287
108.0400 58.5719
108.0500 53.7676
108.0600 52.0043
108.0700 35.3140
108.0800 46.2427
108.0900 48.6499
108.1000 51.1673
108.1100 45.0672
108.1200 48.6906
108.1300 40.4673
108.1400 42.6152
108.1500 33.2738
108.1600 49.4933
108.1700 35.2324
108.1800 53.7613
108.1900 58.4793
108.2000 54.9429
108.2100 54.3788
108.2200 48.9376
108.2300 52.9266
108.2400 39.7798
108.2500 55.4950
108.2600 53.8678
108.2700 59.1252
108.2800 40.0753
108.2900 39.6604
108.3000 60.6877
108.3100 50.4979
108.3200 55.0686
108.3300 47.2193
108.3400 54.3926
108.3500 49.5393
108.3600 52.6187
108.3700 50.4915
108.3800 65.6044
108.3900 49.8201
108.4000 42.2590
108.4100 49.5421
108.4200 50.0763
108.4300 51.5174
108.4400 47.9615
108.4500 51.2935
108.4600 48.5027
108.4700 49.7338
108.4800 37.7258
108.4900 53.8349
108.5000 59.6859
108.5100 49.1358
108.5200 42.3873
108.5300 61.2142
108.5400 57.3949
108.5500 44.8345
108.5600 46.0361
108.5700 48.5744
108.5800 54.4969
108.5900 44.2359
108.6000 50.1659
108.6100 34.6688
108.6200 49.8776
108.6300 57.4267
108.6400 51.5705
108.6500 50.6346
108.6600 56.8383
108.6700 46.5459
108.6800 46.6257
108.6900 44.1129
108.7000 57.8878
108.7100 54.1668
108.7200 38.7075
108.7300 62.1880
108.7400 54.9928
108.7500 47.0488
108.7600 49.3589
108.7700 51.4464
108.7800 54.4538
108.7900 65.6174
108.8000 47.2703
108.8100 43.6492
108.8200 57.5386
108.8300 43.2703
108.8400 53.6234
108.8500 50.7754
108.8600 42.1579
108.8700 54.5608
108.8800 39.8416
108.8900 45.7604
108.9000 55.8842
108.9100 60.0873
108.9200 41.1440
108.9300 45.6104
108.9400 49.3078
108.9500 45.4544
108.9600 42.0906
108.9700 47.9532
108.9800 55.6289
108.9900 64.7354
109.0000 47.7933
109.0100 57.4880
109.0200 55.6143
109.0300 49.1581
109.0400 42.6640
109.0500 52.4520
109.0600 50.2630
109.0700 46.6473
109.0800 54.8679
109.0900 52.9511
109.1000 43.9199
109.1100 47.7887
109.1200 46.1273
109.1300 49.3645
109.1400 43.5952
109.1500 60.1321
109.1600 60.7604
109.1700 48.0433
109.1800 39.6977
109.1900 44.5285
109.2000 50.8336
109.2100 49.7112
109.2200 38.5980
109.2300 42.4804
109.2400 63.3206
109.2500 57.9971
109.2600 55.2445
109.2700 50.7256
109.2800 52.9484
109.2900 62.0859
109.3000 57.8872
109.3100 60.6393
109.3200 55.0535
109.3300 43.1366
109.3400 61.3618
109.3500 46.6432
109.3600 47.9054
109.3700 48.8459
109.3800 53.1397
109.3900 67.1862
109.4000 47.5744
109.4100 49.8463
109.4200 52.2642
109.4300 50.1651
109.4400 52.6517
109.4500 54.5798
109.4600 57.5899
109.4700 58.1145
109.4800 44.2706
109.4900 60.3630
109.5000 48.4555
109.5100 51.2106
109.5200 29.5293
109.5300 46.2693
109.5400 42.0422
109.5500 51.7594
109.5600 56.4245
109.5700 40.1824
109.5800 50.4548
109.5900 49.6447
109.6000 49.0823
109.6100 53.1576
109.6200 54.4181
109.6300 45.1717
109.6400 58.5449
109.6500 56.8988
109.6600 58.0197
109.6700 44.7152
109.6800 50.3581
109.6900 50.4622
109.7000 52.9712
109.7100 50.1242
109.7200 44.4906
109.7300 51.5183
109.7400 54.8671
109.7500 52.9033
109.7600 47.0445
109.7700 48.9255
109.7800 55.0311
109.7900 52.8362
109.8000 44.0477
109.8100 46.4398
109.8200 47.3066
109.8300 44.2303
109.8400 47.1600
109.8500 55.2712
109.8600 46.0343
109.8700 53.3206
109.8800 53.5003
109.8900 56.0117
109.9000 67.8035
109.9100 51.6640
109.9200 53.6040
109.9300 42.8407
109.9400 44.1225
109.9500 50.7281
109.9600 60.6164
109.9700 51.4151
109.9800 57.1493
109.9900 50.5554
110.0000 47.6343
110.0100 60.0233
110.0200 51.0880
110.0300 50.6119
110.0400 44.5353
110.0500 49.6001
110.0600 53.7431
110.0700 46.7693
110.0800 46.0351
110.0900 49.7095
110.1000 55.4872
110.1100 50.6418
110.1200 48.1414
110.1300 41.1475
110.1400 48.6805
110.1500 49.2241
110.1600 54.4428
110.1700 54.8544
110.1800 55.6370
110.1900 50.5318
110.2000 52.5793
110.2100 54.5034
110.2200 49.0086
110.2300 49.0622
110.2400 45.5283
110.2500 50.2849
110.2600 44.0582
110.2700 46.1705
110.2800 51.0291
110.2900 38.6658
110.3000 52.3095
110.3100 45.8786
110.3200 47.7031
110.3300 51.5170
110.3400 52.5482
110.3500 46.6916
110.3600 52.1177
110.3700 51.2011
110.3800 40.1145
110.3900 47.4184
110.4000 53.8914
110.4100 52.4839
110.4200 53.2018
110.4300 59.4280
110.4400 59.1657
110.4500 56.9775
110.4600 42.0280
110.4700 33.0021
110.4800 50.3386
110.4900 48.1416
110.5000 39.5747
110.5100 59.0309
110.5200 39.0647
110.5300 50.4069
110.5400 56.8895
110.5500 51.4310
110.5600 55.0512
110.5700 37.0387
110.5800 57.4508
110.5900 58.2701
110.6000 44.5451
110.6100 40.3199
110.6200 51.0284
110.6300 47.8722
110.6400 52.7194
110.6500 41.5043
110.6600 55.0646
110.6700 53.7134
110.6800 57.4963
110.6900 50.1393
110.7000 37.5584
110.7100 50.2894
110.7200 54.4013
110.7300 39.2584
110.7400 41.9756
110.7500 52.5784
110.7600 54.0494
110.7700 52.4429
110.7800 66.4229
110.7900 56.2388
110.8000 55.3082
110.8100 42.8275
110.8200 43.6146
110.8300 49.5419
110.8400 56.7553
110.8500 48.1756
110.8600 48.9769
110.8700 47.3064
110.8800 48.9071
110.8900 59.6885
110.9000 58.3968
110.9100 58.4902
110.9200 58.4290
110.9300 56.9251
110.9400 48.4216
110.9500 49.8253
110.9600 42.3451
110.9700 60.9134
110.9800 50.7714
110.9900 49.5021
111.0000 44.8455
111.0100 46.6368
111.0200 59.8123
111.0300 57.5768
111.0400 48.0001
111.0500 50.7911
111.0600 58.7803
111.0700 48.2416
111.0800 52.8972
111.0900 44.7214
111.1000 49.5431
111.1100 52.8760
111.1200 61.0945
111.1300 47.5543
111.1400 42.1582
111.1500 54.7066
111.1600 48.1314
111.1700 44.8723
111.1800 38.6277
111.1900 51.4371
111.2000 50.1020
111.2100 44.9012
111.2200 54.8879
111.2300 62.9271
111.2400 55.5041
111.2500 41.7726
111.2600 54.3154
111.2700 58.7296
111.2800 56.6097
111.2900 46.2584
111.3000 51.6947
111.3100 44.0568
111.3200 56.7784
111.3300 58.4799
111.3400 50.5957
111.3500 63.5776
111.3600 56.5802
111.3700 46.5593
111.3800 47.6005
111.3900 55.4369
111.4000 56.7204
111.4100 41.6138
111.4200 63.5273
111.4300 50.1043
111.4400 52.7336
111.4500 60.3317
111.4600 57.3999
111.4700 45.6175
111.4800 43.3914
111.4900 56.0475
111.5000 55.5460
111.5100 55.5430
111.5200 39.9582
111.5300 43.9533
111.5400 44.4445
111.5500 56.8489
111.5600 52.5208
111.5700 44.5261
111.5800 50.1663
111.5900 52.7224
111.6000 54.8721
111.6100 50.6218
111.6200 57.6520
111.6300 47.7269
111.6400 51.2966
111.6500 48.7196
111.6600 54.1743
111.6700 43.5360
111.6800 58.4942
111.6900 59.0673
111.7000 47.7331
111.7100 49.7700
111.7200 49.0770
111.7300 48.5182
111.7400 58.9673
111.7500 47.8056
111.7600 46.9091
111.7700 44.2518
111.7800 45.1129
111.7900 44.5207
111.8000 54.4193
111.8100 53.4328
111.8200 47.9169
111.8300 41.7756
111.8400 53.6675
111.8500 61.7137
111.8600 56.9119
111.8700 47.7500
111.8800 44.8238
111.8900 58.4398
111.9000 49.0950
111.9100 44.5631
111.9200 51.7753
111.9300 47.8948
111.9400 50.9336
111.9500 63.4043
111.9600 53.9194
111.9700 42.2247
111.9800 55.1457
111.9900 60.0344
112.0000 64.7093
112.0100 47.7540
112.0200 39.6432
112.0300 57.6846
112.0400 54.0947
112.0500 44.2019
112.0600 46.7626
112.0700 49.6065
112.0800 51.2831
112.0900 53.4861
112.1000 59.2089
112.1100 68.3617
112.1200 43.3897
112.1300 44.5531
112.1400 47.1741
112.1500 53.1422
112.1600 59.2389
112.1700 51.5644
112.1800 48.7881
112.1900 44.7483
112.2000 50.6336
112.2100 59.2710
112.2200 47.8923
112.2300 48.4514
112.2400 50.9039
112.2500 50.9687
112.2600 47.2865
112.2700 51.3203
112.2800 56.3656
112.2900 53.2230
112.3000 53.9250
112.3100 71.3238
112.3200 32.8542
112.3300 48.6084
112.3400 55.1519
112.3500 38.9677
112.3600 42.8112
112.3700 51.4750
112.3800 56.6688
112.3900 52.6518
112.4000 60.6424
112.4100 53.7854
112.4200 58.2998
112.4300 50.9742
112.4400 53.3984
112.4500 59.1088
112.4600 47.6891
112.4700 50.0562
112.4800 53.3995
112.4900 54.8220
112.5000 49.0654
112.5100 49.9547
112.5200 42.7971
112.5300 64.0969
112.5400 55.5511
112.5500 49.3431
112.5600 38.3863
112.5700 48.7674
112.5800 54.1841
112.5900 50.9095
112.6000 48.7384
112.6100 41.3098
112.6200 49.3877
112.6300 54.1997
112.6400 50.6116
112.6500 46.9384
112.6600 64.2498
112.6700 55.3711
112.6800 56.1771
112.6900 53.6936
112.7000 44.8481
112.7100 45.0858
112.7200 49.1947
112.7300 47.0531
112.7400 44.6892
112.7500 53.6263
112.7600 56.1086
112.7700 51.1292
112.7800 47.8944
112.7900 51.8510
112.8000 52.5960
112.8100 50.3068
112.8200 64.4727
112.8300 53.2801
112.8400 50.3216
112.8500 49.0851
112.8600 48.4232
112.8700 47.2382
112.8800 41.0098
112.8900 61.4649
112.9000 47.6850
112.9100 44.1921
112.9200 62.5903
112.9300 42.6649
112.9400 49.9485
112.9500 58.3923
112.9600 45.4704
112.9700 46.3571
112.9800 49.8915
112.9900 53.5811
113.0000 53.8313
113.0100 39.0319
113.0200 53.4846
113.0300 51.9945
113.0400 43.2959
113.0500 47.0299
113.0600 42.0856
113.0700 51.0586
113.0800 65.3460
113.0900 53.5624
113.1000 55.7714
113.1100 58.9348
113.1200 48.5288
113.1300 36.2664
113.1400 42.1449
113.1500 44.1775
113.1600 49.7974
113.1700 51.3031
113.1800 48.0109
113.1900 57.6946
113.2000 48.6032
113.2100 56.9381
113.2200 61.2280
113.2300 53.3336
113.2400 55.9275
113.2500 46.2399
113.2600 52.1641
113.2700 37.0758
113.2800 56.7043
113.2900 43.8484
113.3000 47.6019
113.3100 46.3735
113.3200 53.7098
113.3300 43.1838
113.3400 43.3751
113.3500 53.9197
113.3600 57.0155
113.3700 53.0028
113.3800 42.4606
113.3900 60.3488
113.4000 48.9339
113.4100 56.5451
113.4200 45.9083
113.4300 43.6083
113.4400 48.1011
113.4500 47.7602
113.4600 50.3817
113.4700 43.2650
113.4800 52.3019
113.4900 53.0991
113.5000 56.2041
113.5100 53.3802
113.5200 53.1393
113.5300 40.8333
113.5400 55.4281
113.5500 57.5218
113.5600 58.1571
113.5700 56.8082
113.5800 50.9483
113.5900 53.5794
113.6000 42.5972
113.6100 52.8570
113.6200 45.5529
113.6300 48.6904
113.6400 50.5368
113.6500 48.0060
113.6600 45.3648
113.6700 53.4413
113.6800 47.6728
113.6900 49.9890
113.7000 37.5698
113.7100 51.3270
113.7200 54.0639
113.7300 65.0228
113.7400 42.4705
113.7500 45.1874
113.7600 41.8457
113.7700 41.9996
113.7800 61.2304
113.7900 52.7604
113.8000 53.1227
113.8100 52.1131
113.8200 51.5287
113.8300 59.8488
113.8400 50.3198
113.8500 43.4979
113.8600 51.6079
113.8700 46.5890
113.8800 51.1427
113.8900 56.7329
113.9000 44.4139
113.9100 42.9179
113.9200 43.0034
113.9300 50.5012
113.9400 46.2078
113.9500 52.4513
113.9600 52.5647
113.9700 42.4349
113.9800 46.2054
113.9900 52.8518
114.0000 51.4297
114.0100 56.7273
114.0200 62.2703
114.0300 49.8469
114.0400 56.8310
114.0500 48.3609
114.0600 50.2566
114.0700 62.5802
114.0800 56.2630
114.0900 49.1322
114.1000 51.6474
114.1100 55.0446
114.1200 44.9418
114.1300 50.8857
114.1400 56.7206
114.1500 41.0588
114.1600 61.4869
114.1700 52.6403
114.1800 52.4059
114.1900 63.3397
114.2000 48.0135
114.2100 62.6124
114.2200 51.8262
114.2300 59.1918
114.2400 45.9164
114.2500 47.5702
114.2600 56.2647
114.2700 58.2217
114.2800 55.2428
114.2900 48.0801
114.3000 46.8613
114.3100 51.0491
114.3200 47.9926
114.3300 56.6387
114.3400 53.2239
114.3500 53.4589
114.3600 66.8017
114.3700 59.8046
114.3800 53.9357
114.3900 35.9188
114.4000 54.3292
114.4100 73.4845
114.4200 51.9907
114.4300 49.4382
114.4400 34.3962
114.4500 50.0045
114.4600 46.3300
114.4700 50.6187
114.4800 46.5445
114.4900 57.6218
114.5000 57.3232
114.5100 59.7702
114.5200 42.3518
114.5300 58.2199
114.5400 51.8122
114.5500 61.8875
114.5600 54.0016
114.5700 47.5625
114.5800 62.2946
114.5900 49.2931
114.6000 55.6306
114.6100 56.1502
114.6200 43.9348
114.6300 58.2712
114.6400 42.3784
114.6500 54.4548
114.6600 53.4007
114.6700 42.0878
114.6800 40.6725
114.6900 51.6841
114.7000 53.9348
114.7100 51.5411
114.7200 44.0418
114.7300 61.9963
114.7400 47.5106
114.7500 47.5557
114.7600 49.4589
114.7700 54.2359
114.7800 57.7930
114.7900 40.5365
114.8000 59.2245
114.8100 56.3821
114.8200 60.3265
114.8300 69.7304
114.8400 49.4540
114.8500 49.4963
114.8600 55.0669
114.8700 49.4436
114.8800 54.3470
114.8900 58.6425
114.9000 54.9247
114.9100 53.1974
114.9200 52.5245
114.9300 51.5225
114.9400 60.4048
114.9500 68.2912
114.9600 55.8902
114.9700 62.6853
114.9800 53.2408
114.9900 49.6456
115.0000 54.3166
115.0100 48.9369
115.0200 65.4351
115.0300 53.1445
115.0400 60.9031
115.0500 60.2771
115.0600 52.1964
115.0700 62.1640
115.0800 48.1685
115.0900 54.2226
115.1000 51.5760
115.1100 55.3110
115.1200 49.1330
115.1300 47.7672
115.1400 59.4695
115.1500 56.6976
115.1600 48.3330
115.1700 53.4952
115.1800 68.3153
115.1900 60.1524
115.2000 61.8429
115.2100 59.0287
115.2200 59.9400
115.2300 56.3248
115.2400 60.6832
115.2500 64.3444
115.2600 65.4769
115.2700 54.1760
115.2800 58.0668
115.2900 51.9027
115.3000 63.8000
115.3100 68.3356
115.3200 57.8542
115.3300 75.7948
115.3400 65.7429
115.3500 64.7542
115.3600 64.0057
115.3700 54.5917
115.3800 51.2854
115.3900 72.9146
115.4000 63.7279
115.4100 67.2077
115.4200 69.7132
115.4300 81.8416
115.4400 61.8578
115.4500 70.8726
115.4600 73.2501
115.4700 86.1031
115.4800 67.4787
115.4900 84.7889
115.5000 76.0338
115.5100 85.6242
115.5200 85.8741
115.5300 85.3861
115.5400 75.9522
115.5500 92.5616
115.5600 109.3593
115.5700 119.2188
115.5800 101.1546
115.5900 116.4834
115.6000 91.9850
115.6100 99.2096
115.6200 110.0206
115.6300 119.3408
115.6400 107.0407
115.6500 110.5489
115.6600 107.4994
115.6700 108.8567
115.6800 118.0215
115.6900 126.9733
115.7000 134.0412
115.7100 140.4571
115.7200 110.5299
115.7300 125.2696
115.7400 154.6992
115.7500 155.7460
115.7600 146.3102
115.7700 145.4657
115.7800 136.4572
115.7900 151.4208
115.8000 148.8366
115.8100 155.8185
115.8200 148.7595
115.8300 145.3290
115.8400 140.0716
115.8500 156.9616
115.8600 158.0424
115.8700 132.4822
115.8800 141.0405
115.8900 138.4805
115.9000 144.1042
115.9100 133.1068
115.9200 151.6049
115.9300 148.3441
115.9400 125.8854
115.9500 118.2583
115.9600 113.6274
115.9700 131.7872
115.9800 127.6786
115.9900 116.0565
116.0000 119.1722
116.0100 127.3859
116.0200 118.3884
116.0300 116.9296
116.0400 106.2555
116.0500 107.2670
116.0600 109.7437
116.0700 117.5022
116.0800 98.6678
116.0900 79.0230
116.1000 94.1189
116.1100 104.1228
116.1200 91.7301
116.1300 78.9048
116.1400 76.2251
116.1500 84.5280
116.1600 81.6509
116.1700 79.9643
116.1800 67.8379
116.1900 64.1897
116.2000 64.3655
116.2100 80.7312
116.2200 78.6776
116.2300 61.6111
116.2400 61.5429
116.2500 55.3503
116.2600 71.4921
116.2700 57.9647
116.2800 49.7659
116.2900 62.8909
116.3000 68.2780
116.3100 82.1679
116.3200 62.2800
116.3300 61.0239
116.3400 60.7894
116.3500 49.2398
116.3600 57.0721
116.3700 47.2954
116.3800 50.7303
116.3900 52.4706
116.4000 56.3406
116.4100 54.4224
116.4200 56.1275
116.4300 48.9324
116.4400 66.0586
116.4500 64.4197
116.4600 48.7619
116.4700 76.0664
116.4800 62.2549
116.4900 49.0590
116.5000 58.6530
116.5100 67.9755
116.5200 55.2004
116.5300 55.6063
116.5400 50.9491
116.5500 64.0289
116.5600 50.4292
116.5700 50.0869
116.5800 48.9833
116.5900 54.0858
116.6000 58.7025
116.6100 47.5222
116.6200 50.7436
116.6300 41.5298
116.6400 56.3705
116.6500 53.2503
116.6600 57.5751
116.6700 53.9086
116.6800 45.8792
116.6900 50.2496
116.7000 57.8053
116.7100 50.0184
116.7200 49.2297
116.7300 50.5222
116.7400 53.4713
116.7500 59.7992
116.7600 48.3070
116.7700 47.8135
116.7800 62.9777
116.7900 55.2256
116.8000 49.0057
116.8100 48.8685
116.8200 46.2395
116.8300 53.9638
116.8400 54.0423
116.8500 66.5012
116.8600 50.6931
116.8700 55.2076
116.8800 48.6760
116.8900 43.4185
116.9000 52.2350
116.9100 53.0165
116.9200 61.0276
116.9300 38.3140
116.9400 57.9581
116.9500 54.7547
116.9600 47.9114
116.9700 49.8364
116.9800 54.8450
116.9900 68.4264
117.0000 53.3079
117.0100 51.4014
117.0200 58.9458
117.0300 64.5809
117.0400 49.8475
117.0500 45.0086
117.0600 49.0006
117.0700 44.7753
117.0800 48.2593
117.0900 41.8857
117.1000 47.2807
117.1100 45.7211
117.1200 51.5877
117.1300 50.3987
117.1400 52.8402
117.1500 57.9020
117.1600 61.7880
117.1700 50.4118
117.1800 49.3464
117.1900 37.6687
117.2000 60.1619
117.2100 60.5539
117.2200 43.8469
117.2300 57.1961
117.2400 52.9866
117.2500 42.9965
117.2600 51.7590
117.2700 64.7659
117.2800 41.3797
117.2900 42.4411
117.3000 47.9140
117.3100 50.8389
117.3200 64.9363
117.3300 62.5130
117.3400 50.0534
117.3500 52.8849
117.3600 46.3151
117.3700 58.1947
117.3800 66.6137
117.3900 53.5297
117.4000 52.3227
117.4100 50.1567
117.4200 47.7019
117.4300 62.3674
117.4400 55.8643
117.4500 52.1817
117.4600 51.2478
117.4700 40.5804
117.4800 48.5345
117.4900 55.0717
117.5000 48.4020
117.5100 58.2402
117.5200 56.0844
117.5300 46.0448
117.5400 49.1153
117.5500 56.2706
117.5600 50.0211
117.5700 47.4800
117.5800 46.4677
117.5900 56.2786
117.6000 59.5163
117.6100 47.3390
117.6200 48.6126
117.6300 50.7776
117.6400 46.7675
117.6500 49.7494
117.6600 48.1470
117.6700 60.3330
117.6800 67.6040
117.6900 55.5271
117.7000 59.5141
117.7100 52.0454
117.7200 48.1100
117.7300 51.6385
117.7400 50.1168
117.7500 46.3151
117.7600 59.6016
117.7700 67.7340
117.7800 57.4797
117.7900 41.4179
117.8000 40.4739
117.8100 60.8030
117.8200 35.8764
117.8300 40.2663
117.8400 55.6964
117.8500 49.8198
117.8600 58.3655
117.8700 43.2490
117.8800 46.0210
117.8900 48.8614
117.9000 56.1795
117.9100 54.4795
117.9200 54.6046
117.9300 50.3388
117.9400 46.1949
117.9500 56.3002
117.9600 51.0085
117.9700 48.4885
117.9800 58.7649
117.9900 55.9814
118.0000 51.4206
118.0100 49.9079
118.0200 47.0671
118.0300 43.1929
118.0400 54.2054
118.0500 55.2792
118.0600 54.6129
118.0700 52.3303
118.0800 59.5603
118.0900 49.9495
118.1000 51.7370
118.1100 58.2201
118.1200 41.4901
118.1300 54.8724
118.1400 55.6846
118.1500 46.0190
118.1600 48.2958
118.1700 56.2000
118.1800 45.5373
118.1900 56.2375
118.2000 61.1111
118.2100 49.2904
118.2200 44.3190
118.2300 54.0988
118.2400 55.0769
118.2500 48.1170
118.2600 54.2675
118.2700 55.6721
118.2800 45.6499
118.2900 46.1511
118.3000 57.7800
118.3100 48.0327
118.3200 43.1962
118.3300 48.7605
118.3400 53.6877
118.3500 54.5231
118.3600 49.2168
118.3700 47.4068
118.3800 57.6619
118.3900 40.1759
118.4000 40.8265
118.4100 42.8977
118.4200 46.3335
118.4300 53.8594
118.4400 57.6329
118.4500 36.1894
118.4600 48.7650
118.4700 53.7468
118.4800 46.2567
118.4900 54.1078
118.5000 50.0844
118.5100 41.5054
118.5200 41.7269
118.5300 50.8822
118.5400 44.1325
118.5500 55.7983
118.5600 41.7395
118.5700 49.7917
118.5800 42.6620
118.5900 49.6834
118.6000 52.2056
118.6100 45.7606
118.6200 54.1250
118.6300 50.2489
118.6400 54.5778
118.6500 42.8695
118.6600 52.1757
118.6700 50.5128
118.6800 44.3032
118.6900 48.8886
118.7000 62.5737
118.7100 57.7561
118.7200 60.7980
118.7300 43.1168
118.7400 44.9026
118.7500 45.5302
118.7600 49.9825
118.7700 66.9364
118.7800 49.4372
118.7900 57.0282
118.8000 63.5547
118.8100 54.8900
118.8200 43.2586
118.8300 51.9990
118.8400 52.1913
118.8500 56.0757
118.8600 56.0363
118.8700 55.7174
118.8800 53.3870
118.8900 53.2855
118.9000 45.2693
118.9100 39.7398
118.9200 52.7579
118.9300 59.2092
118.9400 59.5121
118.9500 49.7199
118.9600 40.4611
118.9700 62.9184
118.9800 43.3466
118.9900 56.0561
119.0000 60.3824
119.0100 51.4770
119.0200 48.1537
119.0300 43.2234
119.0400 53.8338
119.0500 49.0467
119.0600 48.9947
119.0700 55.9272
119.0800 60.2568
119.0900 46.3242
119.1000 48.0375
119.1100 56.3051
119.1200 51.1307
119.1300 51.0445
119.1400 57.6340
119.1500 48.8688
119.1600 49.1176
119.1700 44.5080
119.1800 45.7601
119.1900 54.9261
119.2000 36.0604
119.2100 55.1687
119.2200 58.8573
119.2300 49.4492
119.2400 41.5873
119.2500 40.9437
119.2600 54.2765
119.2700 38.0881
119.2800 52.9219
119.2900 54.2027
119.3000 43.0514
119.3100 60.5335
119.3200 53.7359
119.3300 49.1531
119.3400 52.8224
119.3500 41.4961
119.3600 54.9160
119.3700 63.3182
119.3800 42.6477
119.3900 53.5715
119.4000 44.0086
119.4100 55.0408
119.4200 59.7219
119.4300 44.3576
119.4400 45.0712
119.4500 60.8469
119.4600 43.3038
119.4700 37.4851
119.4800 50.7600
119.4900 53.1758
119.5000 53.9207
119.5100 55.4022
119.5200 58.9516
119.5300 48.7115
119.5400 41.1768
119.5500 51.8218
119.5600 50.5002
119.5700 60.8992
119.5800 47.5043
119.5900 45.4549
119.6000 51.2803
119.6100 52.6284
119.6200 56.4501
119.6300 49.4082
119.6400 56.9394
119.6500 49.9271
119.6600 51.6575
119.6700 57.0684
119.6800 51.2344
119.6900 34.1443
119.7000 54.5818
119.7100 45.1595
119.7200 45.9806
119.7300 44.9881
119.7400 45.1891
119.7500 46.9719
119.7600 56.2419
119.7700 45.8327
119.7800 52.9655
119.7900 49.6295
119.8000 62.9853
119.8100 54.8124
119.8200 52.7924
119.8300 61.6964
119.8400 51.5135
119.8500 45.7240
119.8600 56.0281
119.8700 49.9705
119.8800 64.0703
119.8900 60.1229
119.9000 54.4757
119.9100 51.4909
119.9200 53.2879
119.9300 47.0119
119.9400 47.0326
119.9500 61.5853
119.9600 42.7426
119.9700 55.0226
119.9800 51.0463
119.9900 47.8603
120.0000 55.9794
120.0100 50.5875
120.0200 47.3989
120.0300 49.4641
120.0400 45.4253
120.0500 52.0980
120.0600 57.6085
120.0700 45.5760
120.0800 53.6079
120.0900 53.8746
120.1000 58.1448
120.1100 49.1323
120.1200 51.6088
120.1300 46.3631
120.1400 45.8358
120.1500 45.2690
120.1600 50.2258
120.1700 54.8494
120.1800 59.4819
120.1900 47.2466
120.2000 50.3725
120.2100 55.1291
120.2200 48.8568
120.2300 47.9387
120.2400 54.2959
120.2500 43.8995
120.2600 45.5329
120.2700 49.7958
120.2800 50.4155
120.2900 49.3413
120.3000 52.3220
120.3100 54.9681
120.3200 40.9468
120.3300 61.0554
120.3400 40.6218
120.3500 55.5218
120.3600 39.8094
120.3700 43.8572
120.3800 44.5649
120.3900 54.7715
120.4000 49.4746
120.4100 53.5806
120.4200 46.7795
120.4300 43.7315
120.4400 47.7246
120.4500 54.6652
120.4600 55.7970
120.4700 43.4896
120.4800 48.1266
120.4900 51.2468
120.5000 54.8474
120.5100 54.2502
120.5200 55.1839
120.5300 57.9479
120.5400 51.5884
120.5500 52.8389
120.5600 59.3546
120.5700 45.0905
120.5800 47.8755
120.5900 49.8929
120.6000 42.7758
120.6100 48.1884
120.6200 55.2132
120.6300 62.1913
120.6400 47.9374
120.6500 44.4517
120.6600 47.5993
120.6700 50.4795
120.6800 43.2779
120.6900 59.3210
120.7000 49.6106
120.7100 54.9846
120.7200 61.8458
120.7300 54.8549
120.7400 47.5822
120.7500 65.3724
120.7600 48.7687
120.7700 61.9879
120.7800 37.4334
120.7900 56.1974
120.8000 45.3443
120.8100 53.6282
120.8200 53.1791
120.8300 41.6551
120.8400 45.1671
120.8500 49.2387
120.8600 51.2172
120.8700 45.7237
120.8800 47.9895
120.8900 43.8360
120.9000 45.3869
120.9100 52.2152
120.9200 47.9188
120.9300 41.6212
120.9400 58.8016
120.9500 60.8895
120.9600 56.6761
120.9700 43.1737
120.9800 53.3643
120.9900 58.1225
121.0000 46.3309
121.0100 59.1252
121.0200 55.1340
121.0300 56.4206
121.0400 42.0401
121.0500 43.0944
121.0600 59.4293
121.0700 48.6287
121.0800 62.4702
121.0900 53.3784
121.1000 55.4915
121.1100 44.0535
121.1200 48.9145
121.1300 52.6716
121.1400 59.7225
121.1500 46.3439
121.1600 43.6955
121.1700 47.1037
121.1800 42.3543
121.1900 41.1552
121.2000 46.8266
121.2100 56.2345
121.2200 52.3882
121.2300 49.3606
121.2400 68.9106
121.2500 52.6911
121.2600 48.6075
121.2700 46.0923
121.2800 53.7265
121.2900 48.3731
121.3000 53.4679
121.3100 46.2603
121.3200 48.4362
121.3300 62.0275
121.3400 56.6631
121.3500 57.2071
121.3600 60.2480
121.3700 46.1963
121.3800 46.2023
121.3900 48.8592
121.4000 39.5904
121.4100 46.3003
121.4200 60.2175
121.4300 50.7418
121.4400 50.7782
121.4500 44.7842
121.4600 64.7169
121.4700 47.7539
121.4800 56.8947
121.4900 47.5024
121.5000 49.0940
121.5100 45.7896
121.5200 49.2425
121.5300 68.2508
121.5400 59.7202
121.5500 49.3669
121.5600 47.9990
121.5700 47.0579
121.5800 47.5487
121.5900 59.2519
121.6000 58.6931
121.6100 49.3961
121.6200 56.7229
121.6300 41.3952
121.6400 49.0524
121.6500 54.4642
121.6600 47.5475
121.6700 48.2722
121.6800 49.1822
121.6900 55.0262
121.7000 63.4172
121.7100 49.3734
121.7200 42.7074
121.7300 42.0721
121.7400 38.0111
121.7500 50.0360
121.7600 54.3885
121.7700 41.5944
121.7800 49.4695
121.7900 57.4156
121.8000 51.7212
121.8100 53.3077
121.8200 48.8009
121.8300 43.8521
121.8400 45.4350
121.8500 52.5282
121.8600 35.3450
121.8700 44.0429
121.8800 50.6926
121.8900 56.9420
121.9000 52.7449
121.9100 53.1014
121.9200 56.9755
121.9300 45.9789
121.9400 48.4512
121.9500 58.5774
121.9600 60.1340
121.9700 58.0763
121.9800 53.6177
121.9900 40.2664
122.0000 43.7965
122.0100 54.2990
122.0200 46.6614
122.0300 46.9757
122.0400 41.6195
122.0500 53.6799
122.0600 57.1573
122.0700 64.3129
122.0800 60.0540
122.0900 54.7840
122.1000 37.7919
122.1100 48.9328
122.1200 52.6309
122.1300 63.2916
122.1400 51.4382
122.1500 46.2959
122.1600 55.6077
122.1700 55.2163
122.1800 55.8743
122.1900 44.7281
122.2000 44.6178
122.2100 48.5875
122.2200 48.7416
122.2300 55.0331
122.2400 40.4087
122.2500 51.7648
122.2600 41.0967
122.2700 36.0669
122.2800 62.5492
122.2900 51.2136
122.3000 51.8989
122.3100 47.3833
122.3200 51.8167
122.3300 54.7320
122.3400 45.1172
122.3500 58.8352
122.3600 57.4918
122.3700 44.3786
122.3800 39.8336
122.3900 47.4958
122.4000 45.3767
122.4100 50.1866
122.4200 44.1827
122.4300 47.5800
122.4400 55.4877
122.4500 43.8111
122.4600 44.1441
122.4700 41.0166
122.4800 35.8484
122.4900 45.5634
122.5000 50.9893
122.5100 46.1614
122.5200 43.2022
122.5300 66.7866
122.5400 52.2488
122.5500 37.5903
122.5600 52.6204
122.5700 51.1494
122.5800 57.0623
122.5900 50.9523
122.6000 52.2833
122.6100 51.8938
122.6200 44.8479
122.6300 61.5780
122.6400 36.7700
122.6500 45.1962
122.6600 46.3769
122.6700 42.5454
122.6800 47.2891
122.6900 51.6272
122.7000 47.4613
122.7100 37.8681
122.7200 53.0452
122.7300 54.2786
122.7400 63.4427
122.7500 50.8049
122.7600 46.9540
122.7700 54.3420
122.7800 42.9212
122.7900 58.4772
122.8000 51.8657
122.8100 55.8678
122.8200 56.7874
122.8300 46.2155
122.8400 46.4663
122.8500 54.9297
122.8600 54.1610
122.8700 46.5559
122.8800 42.9202
122.8900 42.3757
122.9000 60.1788
122.9100 49.7943
122.9200 63.2787
122.9300 53.9763
122.9400 41.5852
122.9500 50.4988
122.9600 51.9135
122.9700 52.9083
122.9800 51.1756
122.9900 55.5292
123.0000 46.2422
123.0100 53.1567
123.0200 54.3190
123.0300 56.5942
123.0400 50.1674
123.0500 52.2388
123.0600 63.2612
123.0700 48.9694
123.0800 53.0223
123.0900 62.3240
123.1000 54.8886
123.1100 50.0803
123.1200 50.0413
123.1300 49.3626
123.1400 49.5498
123.1500 37.7975
123.1600 50.8299
123.1700 46.2372
123.1800 60.4428
123.1900 45.7113
123.2000 42.6536
123.2100 44.9530
123.2200 61.6490
123.2300 42.3289
123.2400 48.1685
123.2500 53.0254
123.2600 51.1878
123.2700 40.8825
123.2800 51.2866
123.2900 41.6930
123.3000 53.9173
123.3100 63.2494
123.3200 63.2342
123.3300 42.7935
123.3400 51.1065
123.3500 51.6031
123.3600 57.1527
123.3700 43.5458
123.3800 49.3304
123.3900 52.6651
123.4000 58.1875
123.4100 55.1667
123.4200 56.4953
123.4300 60.4647
123.4400 58.7417
123.4500 50.8067
123.4600 49.1979
123.4700 39.0286
123.4800 42.6046
123.4900 52.8788
123.5000 43.2273
123.5100 57.7391
123.5200 50.2035
123.5300 45.9084
123.5400 50.2180
123.5500 53.8785
123.5600 43.2602
123.5700 45.1147
123.5800 46.1926
123.5900 50.7922
123.6000 51.9698
123.6100 61.2194
123.6200 49.1293
123.6300 51.0647
123.6400 48.4536
123.6500 61.9994
123.6600 51.2976
123.6700 51.9682
123.6800 47.6680
123.6900 56.5130
123.7000 46.2539
123.7100 46.7291
123.7200 52.1193
123.7300 49.5515
123.7400 50.1383
123.7500 48.2459
123.7600 35.9594
123.7700 46.7291
123.7800 54.8594
123.7900 47.9377
123.8000 57.3728
123.8100 44.2765
123.8200 48.0036
123.8300 47.9211
123.8400 48.1649
123.8500 53.7424
123.8600 56.3340
123.8700 52.8544
123.8800 49.7853
123.8900 55.6405
123.9000 57.1805
123.9100 55.5904
123.9200 53.8752
123.9300 48.5868
123.9400 45.5721
123.9500 59.2661
123.9600 57.0340
123.9700 46.7337
123.9800 44.3533
123.9900 50.1568
124.0000 45.9865
124.0100 54.0156
124.0200 44.8228
124.0300 43.2739
124.0400 50.7330
124.0500 45.9363
124.0600 50.0456
124.0700 43.8157
124.0800 39.3091
124.0900 47.9282
124.1000 54.0056
124.1100 47.4895
124.1200 44.3328
124.1300 41.9632
124.1400 40.8835
124.1500 34.8037
124.1600 36.9989
124.1700 45.9421
124.1800 34.6289
124.1900 50.4709
124.2000 46.9119
124.2100 56.7249
124.2200 45.9002
124.2300 52.8689
124.2400 46.6570
124.2500 46.2845
124.2600 55.7251
124.2700 45.4089
124.2800 58.8158
124.2900 50.8751
124.3000 49.2294
124.3100 56.4536
124.3200 60.3205
124.3300 62.7029
124.3400 58.7830
124.3500 61.7683
124.3600 61.1950
124.3700 56.8089
124.3800 42.3407
124.3900 48.4639
124.4000 48.3997
124.4100 54.6519
124.4200 48.8762
124.4300 53.6374
124.4400 51.3888
124.4500 51.2053
124.4600 43.9294
124.4700 46.3708
124.4800 50.7400
124.4900 47.2715
124.5000 47.3033
124.5100 48.1793
124.5200 45.0047
124.5300 51.0010
124.5400 46.9421
124.5500 60.8147
124.5600 44.0981
124.5700 44.3615
124.5800 48.8483
124.5900 48.8190
124.6000 61.0565
124.6100 53.2227
124.6200 49.2580
124.6300 51.3084
124.6400 54.4122
124.6500 48.9286
124.6600 48.1370
124.6700 54.7159
124.6800 45.8488
124.6900 59.9903
124.7000 38.2754
124.7100 53.7135
124.7200 44.8761
124.7300 37.2083
124.7400 40.5061
124.7500 61.3950
124.7600 58.7465
124.7700 57.6478
124.7800 60.7247
124.7900 58.1549
124.8000 51.6532
124.8100 44.2939
124.8200 48.1411
124.8300 60.0534
124.8400 53.6485
124.8500 42.5799
124.8600 42.5686
124.8700 43.5434
124.8800 54.2684
124.8900 69.9447
124.9000 49.4805
124.9100 44.6314
124.9200 42.4419
124.9300 54.6625
124.9400 42.7236
124.9500 48.4497
124.9600 56.4507
124.9700 50.0574
124.9800 39.1670
124.9900 56.5702
125.0000 51.8873
125.0100 56.3026
125.0200 54.1378
125.0300 47.9790
125.0400 55.2172
125.0500 51.4327
125.0600 55.3817
125.0700 50.7558
125.0800 49.5472
125.0900 49.6622
125.1000 45.0822
125.1100 53.4153
125.1200 56.4394
125.1300 52.6121
125.1400 55.4241
125.1500 54.8380
125.1600 40.7794
125.1700 44.0900
125.1800 49.1954
125.1900 64.8882
125.2000 50.5603
125.2100 52.3683
125.2200 54.5803
125.2300 49.9836
125.2400 39.2185
125.2500 51.8303
125.2600 57.3605
125.2700 48.5290
125.2800 48.5733
125.2900 54.1803
125.3000 64.5178
125.3100 43.7923
125.3200 52.9767
125.3300 55.4600
125.3400 50.5226
125.3500 52.2319
125.3600 54.2762
125.3700 43.6442
125.3800 48.3204
125.3900 52.6988
125.4000 43.1022
125.4100 44.7669
125.4200 52.4321
125.4300 58.2752
125.4400 49.0627
125.4500 45.5808
125.4600 52.0260
125.4700 53.4092
125.4800 51.2495
125.4900 67.8044
125.5000 60.7707
125.5100 52.8659
125.5200 62.8912
125.5300 55.4732
125.5400 59.1925
125.5500 52.8978
125.5600 47.0388
125.5700 46.1245
125.5800 57.9168
125.5900 55.7626
125.6000 45.6073
125.6100 51.5869
125.6200 45.9679
125.6300 56.3799
125.6400 61.0954
125.6500 46.5986
125.6600 43.1433
125.6700 47.5345
125.6800 55.7001
125.6900 67.0715
125.7000 55.3544
125.7100 46.4699
125.7200 50.1076
125.7300 39.4973
125.7400 51.1384
125.7500 52.9611
125.7600 47.5846
125.7700 51.5352
125.7800 60.2885
125.7900 48.1007
125.8000 51.5609
125.8100 43.0378
125.8200 46.3312
125.8300 48.5493
125.8400 57.2852
125.8500 54.8142
125.8600 55.4787
125.8700 45.8738
125.8800 62.3226
125.8900 35.8379
125.9000 42.4383
125.9100 47.8346
125.9200 52.5299
125.9300 42.5174
125.9400 51.8772
125.9500 44.3950
125.9600 54.5918
125.9700 48.4875
125.9800 52.4453
125.9900 52.7670
126.0000 44.5757
126.0100 45.4689
126.0200 53.6874
126.0300 42.4938
126.0400 47.2853
126.0500 51.8677
126.0600 56.7423
126.0700 61.5231
126.0800 36.3597
126.0900 55.5163
126.1000 52.9035
126.1100 46.7377
126.1200 59.3443
126.1300 40.6927
126.1400 48.6893
126.1500 44.3302
126.1600 45.9587
126.1700 55.1374
126.1800 54.2653
126.1900 61.0062
126.2000 54.0238
126.2100 51.6300
126.2200 53.9664
126.2300 42.0934
126.2400 45.4175
126.2500 58.7625
126.2600 51.9952
126.2700 42.3952
126.2800 61.3231
126.2900 41.6743
126.3000 45.0595
126.3100 52.1990
126.3200 42.5565
126.3300 63.7368
126.3400 48.0794
126.3500 59.1992
126.3600 54.3485
126.3700 46.0314
126.3800 52.1072
126.3900 51.5958
126.4000 35.9820
126.4100 54.1129
126.4200 49.7345
126.4300 57.9195
126.4400 47.2174
126.4500 51.3123
126.4600 46.1809
126.4700 56.3920
126.4800 52.9094
126.4900 48.7160
126.5000 53.4509
126.5100 58.4426
126.5200 53.4155
126.5300 42.7274
126.5400 33.8390
126.5500 58.6900
126.5600 51.8987
126.5700 54.6445
126.5800 47.9907
126.5900 44.5859
126.6000 61.7480
126.6100 45.9899
126.6200 37.1233
126.6300 52.0867
126.6400 27.7628
126.6500 46.5596
126.6600 41.4686
126.6700 50.7792
126.6800 45.0798
126.6900 54.0866
126.7000 60.5888
126.7100 50.8500
126.7200 50.0659
126.7300 56.1552
126.7400 57.3089
126.7500 63.4904
126.7600 58.7932
126.7700 50.7518
126.7800 61.5533
126.7900 43.0811
126.8000 45.3645
126.8100 53.0803
126.8200 50.8123
126.8300 50.8024
126.8400 59.9872
126.8500 38.2979
126.8600 38.2054
126.8700 53.1207
126.8800 49.1641
126.8900 58.5418
126.9000 72.7334
126.9100 58.0120
126.9200 51.5173
126.9300 43.6995
126.9400 63.6571
126.9500 42.4946
126.9600 45.4818
126.9700 57.0858
126.9800 52.2727
126.9900 46.9987
127.0000 53.9279
127.0100 46.9424
127.0200 49.2506
127.0300 49.0358
127.0400 51.5964
127.0500 48.4975
127.0600 46.8301
127.0700 46.8735
127.0800 51.3373
127.0900 51.5562
127.1000 48.8201
127.1100 50.5373
127.1200 44.6196
127.1300 53.8220
127.1400 48.7778
127.1500 48.4707
127.1600 49.2713
127.1700 50.6504
127.1800 57.5706
127.1900 57.7300
127.2000 63.8532
127.2100 48.4891
127.2200 49.4478
127.2300 62.9375
127.2400 44.2546
127.2500 41.6485
127.2600 50.8710
127.2700 49.5574
127.2800 59.1019
127.2900 46.4328
127.3000 56.8146
127.3100 46.7651
127.3200 60.5035
127.3300 44.2278
127.3400 60.6948
127.3500 43.5736
127.3600 50.0006
127.3700 55.4352
127.3800 58.1003
127.3900 52.7656
127.4000 48.2830
127.4100 53.9575
127.4200 44.1280
127.4300 41.2775
127.4400 52.9986
127.4500 50.6188
127.4600 48.3016
127.4700 62.9170
127.4800 39.8016
127.4900 51.3706
127.5000 42.0604
127.5100 50.7658
127.5200 48.5511
127.5300 44.3670
127.5400 53.1912
127.5500 48.7564
127.5600 44.0147
127.5700 41.9787
127.5800 48.5249
127.5900 50.3685
127.6000 51.4603
127.6100 58.8858
127.6200 49.1955
127.6300 55.1087
127.6400 47.4591
127.6500 39.6312
127.6600 57.2647
127.6700 52.0658
127.6800 53.5878
127.6900 54.1659
127.7000 69.1746
127.7100 49.1280
127.7200 50.7094
127.7300 46.3698
127.7400 51.1037
127.7500 40.9308
127.7600 45.6129
127.7700 50.6669
127.7800 50.5280
127.7900 50.2540
127.8000 52.5065
127.8100 40.7995
127.8200 52.7504
127.8300 54.4208
127.8400 40.0508
127.8500 44.7878
127.8600 49.3960
127.8700 52.2717
127.8800 46.9102
127.8900 53.0991
127.9000 60.6569
127.9100 51.6864
127.9200 51.4528
127.9300 51.2703
127.9400 52.7122
127.9500 51.0780
127.9600 50.0264
127.9700 41.2964
127.9800 50.7706
127.9900 53.3578
128.0000 53.4173
128.0100 51.6498
128.0200 47.4339
128.0300 49.0094
128.0400 54.3795
128.0500 48.1192
128.0600 49.8025
128.0700 51.5041
128.0800 52.9441
128.0900 49.9267
128.1000 57.6946
128.1100 46.6942
128.1200 52.0763
128.1300 49.3974
128.1400 46.8129
128.1500 50.2582
128.1600 45.2916
128.1700 31.5151
128.1800 49.3681
128.1900 45.6393
128.2000 68.2824
128.2100 47.4989
128.2200 59.0845
128.2300 54.8056
128.2400 52.7612
128.2500 51.2884
128.2600 56.7910
128.2700 51.5049
128.2800 55.0957
128.2900 40.7094
128.3000 50.7644
128.3100 48.8485
128.3200 42.9517
128.3300 52.3748
128.3400 58.8769
128.3500 50.5629
128.3600 50.9159
128.3700 47.1969
128.3800 50.3695
128.3900 41.3968
128.4000 45.6428
128.4100 50.5283
128.4200 69.5214
128.4300 38.5249
128.4400 47.1823
128.4500 48.8638
128.4600 47.8070
128.4700 47.2442
128.4800 44.7421
128.4900 44.4475
128.5000 68.8591
128.5100 53.3651
128.5200 56.6014
128.5300 43.5047
128.5400 54.5850
128.5500 43.9043
128.5600 49.0286
128.5700 56.3628
128.5800 51.6908
128.5900 47.5432
128.6000 47.8099
128.6100 54.8501
128.6200 53.9355
128.6300 56.8738
128.6400 51.5785
128.6500 42.3574
128.6600 42.9463
128.6700 44.5142
128.6800 46.4010
128.6900 39.4505
128.7000 52.4715
128.7100 55.8915
128.7200 57.9571
128.7300 55.3349
128.7400 45.4496
128.7500 51.5978
128.7600 53.1709
128.7700 53.1609
128.7800 44.6249
128.7900 50.9782
128.8000 47.8904
128.8100 51.4533
128.8200 53.8354
128.8300 45.2480
128.8400 49.1921
128.8500 55.8811
128.8600 51.6459
128.8700 50.1945
128.8800 50.5973
128.8900 44.6626
128.9000 58.3985
128.9100 34.1082
128.9200 46.7624
128.9300 52.3993
128.9400 56.4366
128.9500 45.2015
128.9600 57.6586
128.9700 59.9101
128.9800 56.3438
128.9900 60.7641
129.0000 48.8809
129.0100 34.0138
129.0200 38.0548
129.0300 31.9359
129.0400 52.7191
129.0500 58.2375
129.0600 57.7251
129.0700 42.4632
129.0800 39.4664
129.0900 51.8835
129.1000 43.7788
129.1100 58.4399
129.1200 54.1275
129.1300 64.3408
129.1400 53.4135
129.1500 60.3125
129.1600 54.2333
129.1700 43.6180
129.1800 54.5609
129.1900 36.8286
129.2000 48.1374
129.2100 49.9756
129.2200 50.8024
129.2300 46.6216
129.2400 61.0936
129.2500 65.5984
129.2600 52.6761
129.2700 53.7906
129.2800 50.0621
129.2900 53.5111
129.3000 49.9663
129.3100 61.0491
129.3200 42.1206
129.3300 42.7435
129.3400 56.7323
129.3500 60.9587
129.3600 46.6499
129.3700 46.8902
129.3800 52.5236
129.3900 42.7107
129.4000 48.2218
129.4100 56.7251
129.4200 49.2549
129.4300 51.5696
129.4400 53.9421
129.4500 52.1146
129.4600 43.9836
129.4700 52.2399
129.4800 39.2546
129.4900 46.9439
129.5000 54.4321
129.5100 46.5309
129.5200 60.9139
129.5300 53.1151
129.5400 35.2537
129.5500 45.2039
129.5600 45.4034
129.5700 48.2837
129.5800 49.6982
129.5900 52.1785
129.6000 46.1915
129.6100 42.2580
129.6200 47.7171
129.6300 59.9423
129.6400 59.3133
129.6500 52.2984
129.6600 55.3517
129.6700 56.9297
129.6800 42.4223
129.6900 61.0101
129.7000 52.8219
129.7100 58.0693
129.7200 54.3553
129.7300 59.6939
129.7400 49.2683
129.7500 39.3521
129.7600 42.8467
129.7700 56.5266
129.7800 58.7753
129.7900 37.4176
129.8000 48.8147
129.8100 60.4061
129.8200 54.3267
129.8300 55.3061
129.8400 58.5255
129.8500 46.9100
129.8600 51.0276
129.8700 56.9031
129.8800 48.1153
129.8900 52.7708
129.9000 45.0044
129.9100 44.2001
129.9200 35.7530
129.9300 46.0016
129.9400 55.5935
129.9500 50.9996
129.9600 50.4749
129.9700 47.6276
129.9800 52.6532
129.9900 48.9015
130.0000 71.3866
