#Collected Data-26
#Intensity_unit=counts
#Attenuator_coefficient=1.000000
40.0000 6.2084
40.0100 2.4598
40.0200 5.2228
40.0300 6.9419
40.0400 4.9265
40.0500 5.6010
40.0600 14.4253
40.0700 7.6867
40.0800 8.1816
40.0900 9.4543
40.1000 0.9799
40.1100 6.5586
40.1200 7.4144
40.1300 6.2122
40.1400 6.5519
40.1500 3.1424
40.1600 4.0506
40.1700 5.3290
40.1800 4.3191
40.1900 9.0121
40.2000 5.4846
40.2100 9.8312
40.2200 5.8647
40.2300 7.2022
40.2400 7.2208
40.2500 9.5136
40.2600 8.7998
40.2700 6.2169
40.2800 6.0944
40.2900 4.9073
40.3000 12.6791
40.3100 8.7116
40.3200 5.9615
40.3300 8.3312
40.3400 9.5260
40.3500 14.8772
40.3600 7.0905
40.3700 13.2422
40.3800 8.9049
40.3900 14.7847
40.4000 9.7176
40.4100 5.9527
40.4200 7.8101
40.4300 7.8607
40.4400 9.3419
40.4500 4.6593
40.4600 9.9683
40.4700 9.1914
40.4800 5.4451
40.4900 6.9431
40.5000 2.9948
40.5100 5.8222
40.5200 9.0727
40.5300 5.2880
40.5400 7.2015
40.5500 5.1641
40.5600 4.3146
40.5700 11.2807
40.5800 9.8217
40.5900 6.3026
40.6000 4.8893
40.6100 6.5253
40.6200 6.9408
40.6300 7.9828
40.6400 11.1016
40.6500 7.2434
40.6600 7.8676
40.6700 6.7372
40.6800 4.4785
40.6900 6.1608
40.7000 4.4302
40.7100 5.4711
40.7200 7.3629
40.7300 6.7955
40.7400 8.9067
40.7500 4.7553
40.7600 7.0528
40.7700 6.9490
40.7800 7.7893
40.7900 8.3369
40.8000 7.0805
40.8100 7.9719
40.8200 6.2858
40.8300 2.7850
40.8400 2.0639
40.8500 8.1150
40.8600 2.2221
40.8700 7.4009
40.8800 8.7451
40.8900 7.6897
40.9000 7.1291
40.9100 5.3109
40.9200 10.9727
40.9300 3.2798
40.9400 5.8540
40.9500 1.6467
40.9600 5.9023
40.9700 4.3253
40.9800 6.6403
40.9900 0.1916
41.0000 3.9721
41.0100 11.6275
41.0200 5.2312
41.0300 9.3661
41.0400 8.2605
41.0500 8.4359
41.0600 9.1739
41.0700 5.0721
41.0800 6.9379
41.0900 3.9394
41.1000 8.4203
41.1100 6.3918
41.1200 7.4953
41.1300 5.6540
41.1400 7.0321
41.1500 5.5090
41.1600 5.1444
41.1700 3.2094
41.1800 5.6065
41.1900 6.9586
41.2000 7.7968
41.2100 13.1364
41.2200 5.5932
41.2300 10.7137
41.2400 2.0865
41.2500 4.1067
41.2600 6.9132
41.2700 5.1686
41.2800 5.5624
41.2900 1.7126
41.3000 5.5900
41.3100 6.9220
41.3200 6.1555
41.3300 6.3988
41.3400 9.0349
41.3500 4.6458
41.3600 10.9078
41.3700 8.5520
41.3800 8.2826
41.3900 7.6009
41.4000 5.9384
41.4100 3.7294
41.4200 10.3735
41.4300 4.4264
41.4400 13.0189
41.4500 10.3643
41.4600 9.1746
41.4700 8.9821
41.4800 7.6017
41.4900 5.3795
41.5000 11.5944
41.5100 10.1668
41.5200 10.4688
41.5300 2.4758
41.5400 6.3729
41.5500 8.7056
41.5600 5.0387
41.5700 4.4384
41.5800 6.1271
41.5900 6.0297
41.6000 8.0897
41.6100 6.5734
41.6200 7.4866
41.6300 5.5353
41.6400 6.4316
41.6500 8.2573
41.6600 8.5429
41.6700 7.5494
41.6800 7.8962
41.6900 5.8355
41.7000 6.0074
41.7100 7.9346
41.7200 3.1236
41.7300 10.3140
41.7400 2.9176
41.7500 5.0613
41.7600 4.2739
41.7700 5.4946
41.7800 5.9309
41.7900 9.1600
41.8000 7.7549
41.8100 5.9477
41.8200 6.2827
41.8300 2.5346
41.8400 5.7257
41.8500 4.0274
41.8600 5.2608
41.8700 3.1021
41.8800 5.8058
41.8900 7.9089
41.9000 8.5396
41.9100 3.5672
41.9200 5.8896
41.9300 5.5174
41.9400 4.0496
41.9500 7.0160
41.9600 3.9744
41.9700 4.5371
41.9800 5.9845
41.9900 7.5021
42.0000 7.3123
42.0100 14.0976
42.0200 10.3907
42.0300 6.2481
42.0400 5.5860
42.0500 6.3851
42.0600 9.3543
42.0700 11.5485
42.0800 7.1100
42.0900 12.2908
42.1000 6.9062
42.1100 7.7915
42.1200 6.2976
42.1300 6.8122
42.1400 7.0366
42.1500 6.2864
42.1600 6.3734
42.1700 5.2096
42.1800 5.1471
42.1900 5.7024
42.2000 8.6718
42.2100 9.4800
42.2200 8.5900
42.2300 5.1181
42.2400 12.5897
42.2500 9.0525
42.2600 7.6434
42.2700 6.5318
42.2800 4.4320
42.2900 7.7233
42.3000 7.5183
42.3100 7.7400
42.3200 14.9597
42.3300 14.1992
42.3400 15.1836
42.3500 21.5081
42.3600 11.7420
42.3700 11.0279
42.3800 10.5804
42.3900 14.1711
42.4000 6.6590
42.4100 6.0988
42.4200 9.2763
42.4300 4.3332
42.4400 2.1563
42.4500 3.7540
42.4600 2.8785
42.4700 5.7831
42.4800 10.0400
42.4900 5.2587
42.5000 6.0943
42.5100 7.7637
42.5200 5.4597
42.5300 6.5115
42.5400 3.1153
42.5500 11.1059
42.5600 6.7277
42.5700 7.7826
42.5800 8.6241
42.5900 5.3502
42.6000 5.2819
42.6100 7.0203
42.6200 4.8568
42.6300 9.8396
42.6400 6.1499
42.6500 3.1468
42.6600 5.9920
42.6700 5.0303
42.6800 5.0380
42.6900 6.0704
42.7000 5.9844
42.7100 2.2770
42.7200 6.6468
42.7300 7.6951
42.7400 5.5004
42.7500 6.7327
42.7600 7.1972
42.7700 1.7591
42.7800 5.5004
42.7900 9.8285
42.8000 11.8845
42.8100 5.1611
42.8200 6.6234
42.8300 8.2597
42.8400 11.7654
42.8500 11.2646
42.8600 7.7366
42.8700 7.0744
42.8800 6.6949
42.8900 6.6859
42.9000 9.7812
42.9100 7.2275
42.9200 7.1208
42.9300 10.0800
42.9400 10.4196
42.9500 7.1598
42.9600 6.8802
42.9700 10.6982
42.9800 6.8165
42.9900 7.4482
43.0000 10.4020
43.0100 8.3297
43.0200 9.1137
43.0300 12.4369
43.0400 8.8691
43.0500 5.1579
43.0600 9.8695
43.0700 5.4746
43.0800 7.5345
43.0900 8.3236
43.1000 10.6403
43.1100 8.0708
43.1200 17.6431
43.1300 1.7019
43.1400 7.6452
43.1500 6.4928
43.1600 5.1697
43.1700 2.8385
43.1800 6.1624
43.1900 3.4731
43.2000 9.7116
43.2100 6.8329
43.2200 12.8673
43.2300 7.5065
43.2400 9.3457
43.2500 8.9083
43.2600 4.3741
43.2700 7.0588
43.2800 8.8131
43.2900 6.9195
43.3000 8.7526
43.3100 7.8841
43.3200 5.4936
43.3300 8.2504
43.3400 7.4163
43.3500 8.3723
43.3600 7.1336
43.3700 7.6016
43.3800 2.8148
43.3900 9.1868
43.4000 9.5491
43.4100 8.5247
43.4200 15.9184
43.4300 4.9253
43.4400 4.1291
43.4500 3.0846
43.4600 2.1161
43.4700 7.2901
43.4800 6.9522
43.4900 5.9301
43.5000 4.7935
43.5100 7.0103
43.5200 8.7386
43.5300 6.4038
43.5400 7.0994
43.5500 8.2451
43.5600 9.5346
43.5700 4.0730
43.5800 5.5266
43.5900 6.4510
43.6000 8.4419
43.6100 4.4947
43.6200 5.9199
43.6300 5.3813
43.6400 2.1497
43.6500 7.9207
43.6600 6.6113
43.6700 5.5874
43.6800 4.1089
43.6900 5.0159
43.7000 6.4076
43.7100 2.2397
43.7200 5.1843
43.7300 8.3965
43.7400 8.4215
43.7500 6.6159
43.7600 9.2757
43.7700 5.9723
43.7800 9.4638
43.7900 5.0099
43.8000 7.7184
43.8100 6.6333
43.8200 6.1777
43.8300 7.7774
43.8400 9.3495
43.8500 9.8858
43.8600 8.6844
43.8700 6.4209
43.8800 5.3142
43.8900 8.1268
43.9000 7.7325
43.9100 5.2092
43.9200 9.8259
43.9300 3.5626
43.9400 7.5504
43.9500 2.8094
43.9600 9.6610
43.9700 4.5389
43.9800 5.5226
43.9900 8.6101
44.0000 9.8863
44.0100 7.7837
44.0200 7.9910
44.0300 8.7425
44.0400 10.8163
44.0500 9.7687
44.0600 4.7110
44.0700 7.2679
44.0800 13.1743
44.0900 10.4405
44.1000 17.8590
44.1100 13.4890
44.1200 10.9677
44.1300 9.5723
44.1400 12.6109
44.1500 7.3977
44.1600 10.6757
44.1700 12.4653
44.1800 14.3132
44.1900 11.0614
44.2000 8.7834
44.2100 15.8341
44.2200 14.0237
44.2300 13.9694
44.2400 21.4063
44.2500 22.3027
44.2600 20.3312
44.2700 18.2448
44.2800 31.3353
44.2900 21.3091
44.3000 34.7543
44.3100 41.5840
44.3200 47.6371
44.3300 33.4711
44.3400 48.1824
44.3500 54.6290
44.3600 51.7066
44.3700 64.8182
44.3800 97.8021
44.3900 86.4349
44.4000 89.6919
44.4100 115.8940
44.4200 117.5273
44.4300 136.8086
44.4400 117.3440
44.4500 158.1185
44.4600 157.4794
44.4700 165.2727
44.4800 190.4971
44.4900 174.5488
44.5000 192.5945
44.5100 201.6445
44.5200 223.5205
44.5300 227.5617
44.5400 216.7386
44.5500 206.7365
44.5600 203.6378
44.5700 195.5048
44.5800 208.3063
44.5900 189.5809
44.6000 171.3756
44.6100 164.7418
44.6200 173.8874
44.6300 137.6157
44.6400 126.2859
44.6500 92.7055
44.6600 82.3530
44.6700 92.1714
44.6800 77.3581
44.6900 68.9785
44.7000 59.5090
44.7100 50.9012
44.7200 43.0042
44.7300 33.6530
44.7400 35.1471
44.7500 25.1465
44.7600 28.7875
44.7700 25.7648
44.7800 22.5107
44.7900 16.3180
44.8000 20.6611
44.8100 15.1114
44.8200 18.3760
44.8300 13.9961
44.8400 12.7861
44.8500 11.2089
44.8600 15.7215
44.8700 11.3492
44.8800 8.8210
44.8900 9.2941
44.9000 5.8425
44.9100 6.8429
44.9200 8.5525
44.9300 8.3863
44.9400 10.5238
44.9500 10.2889
44.9600 6.9416
44.9700 9.5044
44.9800 7.9197
44.9900 6.4528
45.0000 8.2859
45.0100 8.5421
45.0200 8.4981
45.0300 8.2541
45.0400 2.0372
45.0500 4.1935
45.0600 10.7370
45.0700 11.5477
45.0800 8.7503
45.0900 2.7848
45.1000 3.9894
45.1100 4.1697
45.1200 5.2236
45.1300 4.2901
45.1400 8.2634
45.1500 6.2325
45.1600 5.2811
45.1700 4.6491
45.1800 5.6247
45.1900 2.5546
45.2000 3.3329
45.2100 1.0030
45.2200 2.7732
45.2300 0.3220
45.2400 11.3699
45.2500 8.5654
45.2600 4.8684
45.2700 7.3469
45.2800 4.8570
45.2900 4.6587
45.3000 6.1833
45.3100 6.2608
45.3200 9.0339
45.3300 3.8449
45.3400 11.8112
45.3500 4.8848
45.3600 4.2075
45.3700 5.9633
45.3800 4.1732
45.3900 7.9488
45.4000 4.6116
45.4100 3.7708
45.4200 3.0734
45.4300 7.2349
45.4400 4.6584
45.4500 8.6282
45.4600 5.6302
45.4700 14.6189
45.4800 3.0240
45.4900 3.3279
45.5000 4.8435
45.5100 10.9522
45.5200 10.1108
45.5300 7.3827
45.5400 7.8556
45.5500 3.4256
45.5600 6.2530
45.5700 6.4605
45.5800 5.2360
45.5900 6.7684
45.6000 6.6725
45.6100 6.3499
45.6200 7.2318
45.6300 7.3531
45.6400 4.3861
45.6500 5.3602
45.6600 3.1655
45.6700 5.2852
45.6800 7.4255
45.6900 5.4174
45.7000 10.8635
45.7100 6.3747
45.7200 3.6434
45.7300 4.8044
45.7400 6.1773
45.7500 7.0268
45.7600 8.8637
45.7700 6.2535
45.7800 3.3440
45.7900 5.2471
45.8000 4.3128
45.8100 9.5227
45.8200 10.0993
45.8300 6.7343
45.8400 5.1079
45.8500 8.2386
45.8600 6.2601
45.8700 5.9654
45.8800 6.1496
45.8900 7.4288
45.9000 4.4086
45.9100 6.2958
45.9200 6.0065
45.9300 5.4533
45.9400 3.1440
45.9500 4.5903
45.9600 4.1062
45.9700 5.8201
45.9800 6.2038
45.9900 10.0374
46.0000 3.1273
46.0100 6.6506
46.0200 5.1407
46.0300 9.7815
46.0400 7.2003
46.0500 6.7431
46.0600 3.5089
46.0700 4.7904
46.0800 10.6663
46.0900 8.2908
46.1000 7.3791
46.1100 6.0915
46.1200 2.9001
46.1300 2.0573
46.1400 7.0362
46.1500 4.4662
46.1600 7.7525
46.1700 8.4298
46.1800 7.2411
46.1900 1.4479
46.2000 9.1711
46.2100 6.8495
46.2200 6.0295
46.2300 5.9940
46.2400 10.0625
46.2500 5.8562
46.2600 5.4649
46.2700 2.8886
46.2800 5.8319
46.2900 4.4463
46.3000 5.0867
46.3100 2.0327
46.3200 1.2426
46.3300 2.1866
46.3400 10.0237
46.3500 10.7479
46.3600 3.7746
46.3700 12.7572
46.3800 9.2006
46.3900 8.8060
46.4000 11.9072
46.4100 6.6351
46.4200 8.0603
46.4300 4.9363
46.4400 8.1729
46.4500 4.5879
46.4600 5.7555
46.4700 7.0487
46.4800 7.4408
46.4900 4.0050
46.5000 9.2488
46.5100 6.6008
46.5200 4.3863
46.5300 8.2149
46.5400 12.3072
46.5500 7.2436
46.5600 12.0908
46.5700 8.2460
46.5800 15.6462
46.5900 3.1537
46.6000 8.1753
46.6100 8.0103
46.6200 14.9567
46.6300 2.0292
46.6400 3.6572
46.6500 8.9354
46.6600 7.3512
46.6700 12.8557
46.6800 10.4590
46.6900 10.6717
46.7000 10.1277
46.7100 9.9423
46.7200 4.7648
46.7300 3.7558
46.7400 8.2589
46.7500 3.8111
46.7600 3.0391
46.7700 5.3528
46.7800 6.0330
46.7900 6.4671
46.8000 6.0202
46.8100 9.0171
46.8200 3.8353
46.8300 13.1299
46.8400 8.4005
46.8500 10.1685
46.8600 6.5439
46.8700 6.5034
46.8800 6.8403
46.8900 5.8058
46.9000 4.5094
46.9100 4.4653
46.9200 6.2383
46.9300 4.5627
46.9400 4.2261
46.9500 3.0635
46.9600 3.0988
46.9700 1.7496
46.9800 6.0057
46.9900 9.4535
47.0000 5.1998
47.0100 5.8569
47.0200 5.2071
47.0300 5.7740
47.0400 2.0729
47.0500 7.2637
47.0600 5.7118
47.0700 8.5974
47.0800 4.7833
47.0900 6.1545
47.1000 5.7440
47.1100 6.3623
47.1200 8.7009
47.1300 9.6198
47.1400 7.4936
47.1500 8.2513
47.1600 5.2957
47.1700 6.2254
47.1800 8.7164
47.1900 3.7980
47.2000 7.1861
47.2100 3.7136
47.2200 6.7370
47.2300 5.4177
47.2400 5.1899
47.2500 5.6719
47.2600 8.5956
47.2700 13.3526
47.2800 14.5557
47.2900 8.6581
47.3000 7.4076
47.3100 5.1773
47.3200 9.2929
47.3300 4.6141
47.3400 6.3569
47.3500 6.9355
47.3600 5.7573
47.3700 6.2096
47.3800 9.0457
47.3900 7.3249
47.4000 5.2052
47.4100 8.5175
47.4200 5.1657
47.4300 6.2772
47.4400 6.6397
47.4500 9.6946
47.4600 8.2053
47.4700 12.5186
47.4800 9.7056
47.4900 6.9576
47.5000 5.1940
47.5100 3.6304
47.5200 8.3054
47.5300 6.5575
47.5400 8.8006
47.5500 6.3614
47.5600 8.4225
47.5700 6.1343
47.5800 6.2837
47.5900 4.5341
47.6000 5.1150
47.6100 4.5870
47.6200 5.0568
47.6300 5.6248
47.6400 7.7973
47.6500 8.5287
47.6600 6.3668
47.6700 9.8331
47.6800 9.2440
47.6900 6.0023
47.7000 3.6431
47.7100 8.8159
47.7200 6.6008
47.7300 4.1596
47.7400 5.4080
47.7500 6.2069
47.7600 4.2603
47.7700 10.2686
47.7800 10.4014
47.7900 9.2833
47.8000 8.2727
47.8100 4.5102
47.8200 5.7925
47.8300 6.0843
47.8400 7.8324
47.8500 6.8086
47.8600 4.7256
47.8700 6.5982
47.8800 6.3845
47.8900 6.1621
47.9000 5.3863
47.9100 5.3357
47.9200 7.2949
47.9300 7.1806
47.9400 8.4131
47.9500 10.4397
47.9600 6.5258
47.9700 3.3799
47.9800 8.4126
47.9900 7.5007
48.0000 13.1781
48.0100 4.5304
48.0200 7.7467
48.0300 5.8167
48.0400 10.7363
48.0500 3.7436
48.0600 11.1497
48.0700 3.5872
48.0800 5.5581
48.0900 7.4509
48.1000 13.4601
48.1100 6.4800
48.1200 11.6729
48.1300 8.2968
48.1400 17.9933
48.1500 10.5443
48.1600 14.4750
48.1700 13.4898
48.1800 8.8336
48.1900 10.0300
48.2000 2.9212
48.2100 14.0970
48.2200 5.2839
48.2300 6.6528
48.2400 6.0149
48.2500 7.4175
48.2600 8.5240
48.2700 5.9348
48.2800 4.1133
48.2900 5.4724
48.3000 3.2289
48.3100 5.3761
48.3200 9.6558
48.3300 5.9029
48.3400 7.1107
48.3500 5.5562
48.3600 6.2900
48.3700 6.7360
48.3800 6.7103
48.3900 7.7146
48.4000 4.9840
48.4100 7.1828
48.4200 3.9674
48.4300 3.1284
48.4400 3.6786
48.4500 5.3342
48.4600 5.7489
48.4700 14.0218
48.4800 8.0872
48.4900 5.7598
48.5000 2.2738
48.5100 7.8129
48.5200 10.0087
48.5300 11.4656
48.5400 6.5511
48.5500 4.8397
48.5600 7.0319
48.5700 9.0097
48.5800 6.7357
48.5900 6.7373
48.6000 11.1485
48.6100 7.8082
48.6200 7.3353
48.6300 10.3340
48.6400 9.1810
48.6500 7.2653
48.6600 4.6488
48.6700 7.5603
48.6800 7.3294
48.6900 9.0998
48.7000 10.7947
48.7100 8.3334
48.7200 7.5186
48.7300 6.9045
48.7400 8.2504
48.7500 4.0092
48.7600 4.8287
48.7700 8.2222
48.7800 6.4121
48.7900 8.0550
48.8000 2.5230
48.8100 4.8827
48.8200 3.5484
48.8300 2.5320
48.8400 10.2495
48.8500 7.7744
48.8600 5.5160
48.8700 3.7875
48.8800 7.2875
48.8900 2.6119
48.9000 9.1532
48.9100 5.3105
48.9200 3.9008
48.9300 5.3284
48.9400 5.3115
48.9500 6.3958
48.9600 4.6444
48.9700 7.4026
48.9800 9.7650
48.9900 3.2792
49.0000 10.6116
49.0100 5.7334
49.0200 12.7049
49.0300 8.9184
49.0400 8.0162
49.0500 3.3222
49.0600 4.1776
49.0700 5.4432
49.0800 4.1308
49.0900 7.0164
49.1000 11.3444
49.1100 8.7275
49.1200 8.5034
49.1300 7.1228
49.1400 5.9042
49.1500 5.2929
49.1600 6.1462
49.1700 8.3695
49.1800 8.6477
49.1900 8.6494
49.2000 6.1338
49.2100 5.9706
49.2200 8.3980
49.2300 4.6656
49.2400 4.0513
49.2500 4.0722
49.2600 6.2063
49.2700 8.4188
49.2800 5.9639
49.2900 6.8059
49.3000 9.8248
49.3100 9.3316
49.3200 7.8675
49.3300 6.6332
49.3400 10.1313
49.3500 4.1516
49.3600 9.2538
49.3700 8.5459
49.3800 15.6582
49.3900 6.9496
49.4000 3.4421
49.4100 8.0695
49.4200 8.1461
49.4300 10.4064
49.4400 7.1851
49.4500 9.3643
49.4600 8.4336
49.4700 4.4821
49.4800 8.0853
49.4900 7.7009
49.5000 7.1519
49.5100 3.8166
49.5200 5.5564
49.5300 4.1997
49.5400 1.5673
49.5500 4.4683
49.5600 4.3778
49.5700 4.3705
49.5800 6.1708
49.5900 4.2410
49.6000 4.3450
49.6100 5.7254
49.6200 9.0642
49.6300 8.0471
49.6400 12.9544
49.6500 9.2511
49.6600 9.4090
49.6700 6.2161
49.6800 14.4178
49.6900 3.5680
49.7000 3.1701
49.7100 4.3536
49.7200 2.7203
49.7300 7.7720
49.7400 3.2260
49.7500 4.4068
49.7600 6.8001
49.7700 3.5934
49.7800 5.5699
49.7900 4.9142
49.8000 7.3932
49.8100 3.4315
49.8200 6.5735
49.8300 6.8480
49.8400 4.7259
49.8500 5.7897
49.8600 2.7640
49.8700 4.2948
49.8800 8.8500
49.8900 6.4059
49.9000 6.3373
49.9100 1.3854
49.9200 4.9360
49.9300 4.0372
49.9400 6.5298
49.9500 8.1410
49.9600 4.0121
49.9700 7.4128
49.9800 4.9671
49.9900 9.9559
50.0000 3.0607
50.0100 13.6938
50.0200 6.9313
50.0300 12.6879
50.0400 8.1549
50.0500 4.4681
50.0600 9.2420
50.0700 5.6374
50.0800 6.1294
50.0900 1.5813
50.1000 7.6297
50.1100 9.2605
50.1200 8.3247
50.1300 8.3445
50.1400 7.7067
50.1500 7.5062
50.1600 5.5043
50.1700 5.3308
50.1800 7.3771
50.1900 3.4473
50.2000 6.7808
50.2100 8.8882
50.2200 7.9693
50.2300 7.3554
50.2400 5.8429
50.2500 5.7597
50.2600 8.3966
50.2700 7.9881
50.2800 4.1947
50.2900 5.2479
50.3000 3.6315
50.3100 1.9123
50.3200 4.0610
50.3300 5.1944
50.3400 8.1996
50.3500 5.2793
50.3600 7.8895
50.3700 2.9898
50.3800 4.1730
50.3900 2.8639
50.4000 6.4847
50.4100 4.5206
50.4200 5.9063
50.4300 5.1992
50.4400 8.4597
50.4500 10.7460
50.4600 5.2982
50.4700 8.7266
50.4800 8.3904
50.4900 9.4750
50.5000 5.9773
50.5100 6.1931
50.5200 3.3502
50.5300 5.1462
50.5400 6.2616
50.5500 7.0437
50.5600 2.2136
50.5700 7.2698
50.5800 6.0048
50.5900 7.1881
50.6000 3.7312
50.6100 3.7262
50.6200 6.3321
50.6300 5.2596
50.6400 7.1633
50.6500 8.1484
50.6600 5.8155
50.6700 3.4214
50.6800 5.8391
50.6900 7.1143
50.7000 5.2983
50.7100 4.5699
50.7200 3.3600
50.7300 4.5829
50.7400 2.3995
50.7500 10.0141
50.7600 8.7162
50.7700 2.0266
50.7800 8.0956
50.7900 5.0644
50.8000 12.7662
50.8100 4.9752
50.8200 9.1212
50.8300 7.0602
50.8400 5.8860
50.8500 6.3300
50.8600 1.7746
50.8700 4.1692
50.8800 3.0305
50.8900 4.9355
50.9000 5.2983
50.9100 4.0807
50.9200 8.1475
50.9300 3.7047
50.9400 7.5683
50.9500 5.5736
50.9600 8.2831
50.9700 5.5516
50.9800 3.6484
50.9900 1.7974
51.0000 4.8886
51.0100 6.4745
51.0200 7.7673
51.0300 4.8307
51.0400 4.8698
51.0500 5.6702
51.0600 7.3647
51.0700 6.3929
51.0800 7.1416
51.0900 1.3719
51.1000 6.1294
51.1100 3.5679
51.1200 6.2373
51.1300 4.6675
51.1400 10.0157
51.1500 7.6993
51.1600 5.8038
51.1700 7.1929
51.1800 6.0802
51.1900 5.3386
51.2000 9.0491
51.2100 6.9500
51.2200 7.9312
51.2300 4.2783
51.2400 5.5078
51.2500 6.6353
51.2600 4.6646
51.2700 6.2106
51.2800 5.0539
51.2900 6.4518
51.3000 7.7933
51.3100 9.0188
51.3200 8.1795
51.3300 6.0266
51.3400 2.6634
51.3500 6.5050
51.3600 7.6036
51.3700 8.3477
51.3800 8.6659
51.3900 7.4551
51.4000 6.1792
51.4100 7.9289
51.4200 7.8365
51.4300 6.3750
51.4400 3.9663
51.4500 8.9774
51.4600 10.7597
51.4700 9.1990
51.4800 4.8243
51.4900 6.3483
51.5000 8.3314
51.5100 3.5720
51.5200 5.3935
51.5300 1.1081
51.5400 7.0095
51.5500 5.2542
51.5600 8.7128
51.5700 4.5378
51.5800 8.2291
51.5900 10.4195
51.6000 7.2507
51.6100 4.1507
51.6200 7.4787
51.6300 4.3158
51.6400 4.4365
51.6500 6.0410
51.6600 5.8539
51.6700 7.6854
51.6800 5.1357
51.6900 6.2015
51.7000 8.2128
51.7100 5.2282
51.7200 6.6843
51.7300 10.0466
51.7400 6.2882
51.7500 3.8459
51.7600 4.7427
51.7700 6.1780
51.7800 7.6209
51.7900 9.5535
51.8000 7.7978
51.8100 5.4732
51.8200 4.6530
51.8300 6.5750
51.8400 4.1884
51.8500 6.5605
51.8600 6.6083
51.8700 4.3896
51.8800 6.4919
51.8900 7.2552
51.9000 11.7668
51.9100 7.5421
51.9200 7.1901
51.9300 4.5289
51.9400 6.8707
51.9500 2.8971
51.9600 6.1698
51.9700 4.1560
51.9800 4.7749
51.9900 5.9275
52.0000 3.7713
52.0100 8.4155
52.0200 3.5952
52.0300 7.4593
52.0400 5.5189
52.0500 7.1196
52.0600 2.1468
52.0700 2.6147
52.0800 2.0218
52.0900 3.2032
52.1000 9.6966
52.1100 6.4891
52.1200 6.0677
52.1300 1.3193
52.1400 7.0356
52.1500 4.2861
52.1600 2.7316
52.1700 6.2077
52.1800 7.8651
52.1900 8.3651
52.2000 6.4535
52.2100 8.6280
52.2200 4.9551
52.2300 6.3497
52.2400 5.1334
52.2500 6.4931
52.2600 9.6828
52.2700 5.6727
52.2800 5.3211
52.2900 7.6923
52.3000 9.9786
52.3100 9.1721
52.3200 7.9733
52.3300 5.0664
52.3400 2.2031
52.3500 5.3804
52.3600 2.5820
52.3700 3.0041
52.3800 4.0056
52.3900 5.3494
52.4000 8.2749
52.4100 6.7824
52.4200 4.1054
52.4300 6.2946
52.4400 4.3283
52.4500 3.8940
52.4600 4.1588
52.4700 6.7877
52.4800 3.3192
52.4900 9.7306
52.5000 7.7927
52.5100 7.6321
52.5200 4.4738
52.5300 4.6639
52.5400 7.3693
52.5500 6.3034
52.5600 8.3864
52.5700 7.4109
52.5800 8.7663
52.5900 4.2140
52.6000 10.7580
52.6100 5.2282
52.6200 9.7842
52.6300 8.7152
52.6400 8.1016
52.6500 7.3811
52.6600 8.3864
52.6700 8.0744
52.6800 8.7075
52.6900 6.4274
52.7000 11.5185
52.7100 6.8982
52.7200 14.1803
52.7300 8.7411
52.7400 11.0945
52.7500 9.7480
52.7600 11.5194
52.7700 7.3792
52.7800 8.5733
52.7900 3.3417
52.8000 3.2840
52.8100 5.6059
52.8200 3.6964
52.8300 8.7826
52.8400 7.3854
52.8500 4.6672
52.8600 4.0254
52.8700 2.2903
52.8800 10.3018
52.8900 4.6463
52.9000 11.2766
52.9100 9.6017
52.9200 4.1040
52.9300 7.7391
52.9400 6.1612
52.9500 11.9559
52.9600 5.5493
52.9700 10.7830
52.9800 8.6838
52.9900 6.3621
53.0000 10.6803
53.0100 4.5252
53.0200 3.5897
53.0300 6.1189
53.0400 5.4538
53.0500 4.8050
53.0600 6.7575
53.0700 9.1695
53.0800 9.2180
53.0900 2.4056
53.1000 8.3856
53.1100 8.8378
53.1200 7.6163
53.1300 7.5700
53.1400 7.3557
53.1500 5.7470
53.1600 7.0976
53.1700 5.6134
53.1800 10.3882
53.1900 7.1816
53.2000 7.0531
53.2100 8.1403
53.2200 5.7549
53.2300 5.5465
53.2400 4.7737
53.2500 7.1319
53.2600 2.4378
53.2700 5.2075
53.2800 2.8375
53.2900 0.9913
53.3000 7.2743
53.3100 8.7691
53.3200 7.7190
53.3300 4.3061
53.3400 5.1142
53.3500 4.8195
53.3600 5.0633
53.3700 3.4396
53.3800 3.2101
53.3900 8.4445
53.4000 4.9668
53.4100 4.8229
53.4200 11.2498
53.4300 5.0779
53.4400 4.7900
53.4500 5.3869
53.4600 1.9703
53.4700 2.6133
53.4800 7.2053
53.4900 5.6820
53.5000 6.1698
53.5100 5.0913
53.5200 5.4799
53.5300 7.4849
53.5400 10.2172
53.5500 10.5984
53.5600 6.7081
53.5700 6.0213
53.5800 3.1162
53.5900 6.7750
53.6000 9.0453
53.6100 7.5693
53.6200 4.8989
53.6300 11.0675
53.6400 5.0110
53.6500 12.7463
53.6600 8.2223
53.6700 6.3130
53.6800 3.9252
53.6900 4.8942
53.7000 4.4524
53.7100 4.2247
53.7200 6.1780
53.7300 4.1779
53.7400 3.9826
53.7500 7.6230
53.7600 4.2837
53.7700 6.9041
53.7800 8.6850
53.7900 3.3890
53.8000 5.4299
53.8100 4.1598
53.8200 7.2171
53.8300 6.0652
53.8400 1.6153
53.8500 10.8730
53.8600 1.4729
53.8700 4.7686
53.8800 2.0212
53.8900 9.2042
53.9000 14.1534
53.9100 6.2015
53.9200 11.4647
53.9300 4.7098
53.9400 10.4458
53.9500 5.3709
53.9600 11.5112
53.9700 5.3208
53.9800 8.7509
53.9900 4.3278
54.0000 2.5696
54.0100 2.7545
54.0200 8.4583
54.0300 13.3495
54.0400 5.8555
54.0500 8.3084
54.0600 4.7060
54.0700 7.3236
54.0800 6.2193
54.0900 0.5501
54.1000 2.7539
54.1100 5.8322
54.1200 8.1029
54.1300 0.0000
54.1400 6.9420
54.1500 3.1773
54.1600 4.2435
54.1700 4.9929
54.1800 4.4521
54.1900 9.0925
54.2000 2.9792
54.2100 4.9322
54.2200 6.4176
54.2300 9.9495
54.2400 10.6493
54.2500 7.3883
54.2600 10.6934
54.2700 9.3057
54.2800 5.4878
54.2900 7.6654
54.3000 12.3539
54.3100 15.0552
54.3200 6.7862
54.3300 7.5975
54.3400 7.0400
54.3500 2.3111
54.3600 8.0968
54.3700 4.8312
54.3800 6.4240
54.3900 5.4263
54.4000 3.9599
54.4100 1.7781
54.4200 4.1096
54.4300 3.5375
54.4400 9.3044
54.4500 5.0441
54.4600 8.1964
54.4700 6.7469
54.4800 9.0403
54.4900 3.8452
54.5000 8.0790
54.5100 7.2482
54.5200 4.3529
54.5300 6.0792
54.5400 6.5961
54.5500 4.3296
54.5600 4.1328
54.5700 5.1152
54.5800 5.2592
54.5900 2.9478
54.6000 5.2461
54.6100 6.7347
54.6200 8.8987
54.6300 8.0412
54.6400 6.0971
54.6500 8.2013
54.6600 10.4178
54.6700 10.9772
54.6800 7.0315
54.6900 6.7505
54.7000 3.3928
54.7100 5.3068
54.7200 6.3129
54.7300 5.6273
54.7400 6.8061
54.7500 9.9092
54.7600 6.4641
54.7700 2.6917
54.7800 10.9377
54.7900 2.4212
54.8000 10.6237
54.8100 7.1938
54.8200 6.8713
54.8300 4.6303
54.8400 7.7585
54.8500 3.0959
54.8600 2.7293
54.8700 2.3221
54.8800 6.9826
54.8900 3.0534
54.9000 6.8529
54.9100 3.0327
54.9200 4.5277
54.9300 3.1644
54.9400 4.9714
54.9500 8.9336
54.9600 8.6835
54.9700 4.5580
54.9800 3.9874
54.9900 5.4769
55.0000 13.2080
55.0100 3.6393
55.0200 4.9567
55.0300 8.5715
55.0400 11.4515
55.0500 8.6791
55.0600 12.4912
55.0700 5.5674
55.0800 6.8875
55.0900 4.2689
55.1000 3.4429
55.1100 8.2125
55.1200 3.5384
55.1300 9.4762
55.1400 5.6026
55.1500 4.8447
55.1600 5.1655
55.1700 5.7228
55.1800 3.8111
55.1900 5.1611
55.2000 5.6084
55.2100 6.0620
55.2200 4.1601
55.2300 5.3933
55.2400 9.0941
55.2500 9.5522
55.2600 6.5114
55.2700 7.2103
55.2800 8.1224
55.2900 2.1647
55.3000 7.9612
55.3100 5.9115
55.3200 11.7383
55.3300 5.5713
55.3400 9.3427
55.3500 2.7404
55.3600 6.0312
55.3700 3.0702
55.3800 4.4677
55.3900 11.1916
55.4000 7.3453
55.4100 9.2429
55.4200 8.3954
55.4300 4.0832
55.4400 5.2788
55.4500 5.6936
55.4600 11.2679
55.4700 6.1709
55.4800 10.4042
55.4900 5.8962
55.5000 3.5649
55.5100 5.9219
55.5200 6.3978
55.5300 10.5364
55.5400 7.8525
55.5500 9.3290
55.5600 4.0399
55.5700 8.3961
55.5800 8.6368
55.5900 10.8532
55.6000 10.7577
55.6100 7.9451
55.6200 9.7730
55.6300 8.7595
55.6400 7.0170
55.6500 6.3809
55.6600 10.2293
55.6700 12.8730
55.6800 6.3218
55.6900 6.2566
55.7000 6.1923
55.7100 6.5182
55.7200 17.3131
55.7300 7.7279
55.7400 9.4791
55.7500 7.7024
55.7600 5.7981
55.7700 9.3730
55.7800 5.6409
55.7900 4.1823
55.8000 10.6978
55.8100 8.8351
55.8200 9.1120
55.8300 4.3049
55.8400 6.0466
55.8500 7.1314
55.8600 5.0673
55.8700 5.8656
55.8800 5.9851
55.8900 9.3087
55.9000 4.6185
55.9100 3.4472
55.9200 4.5245
55.9300 4.6704
55.9400 4.0385
55.9500 2.1971
55.9600 9.2257
55.9700 2.8552
55.9800 6.4159
55.9900 9.0419
56.0000 8.0618
56.0100 7.3876
56.0200 9.5879
56.0300 7.0766
56.0400 11.3967
56.0500 4.1260
56.0600 0.4265
56.0700 8.5483
56.0800 8.8189
56.0900 8.0724
56.1000 5.4381
56.1100 3.0974
56.1200 4.8187
56.1300 7.3471
56.1400 1.5599
56.1500 3.9359
56.1600 3.5624
56.1700 13.8956
56.1800 8.6430
56.1900 12.0736
56.2000 7.4038
56.2100 18.8186
56.2200 11.0623
56.2300 14.9139
56.2400 11.4818
56.2500 8.2460
56.2600 3.2455
56.2700 6.3617
56.2800 6.3513
56.2900 11.3602
56.3000 6.7492
56.3100 13.5494
56.3200 2.6242
56.3300 9.3909
56.3400 3.0311
56.3500 8.8273
56.3600 8.0037
56.3700 7.2260
56.3800 6.3884
56.3900 4.0046
56.4000 7.0034
56.4100 5.5870
56.4200 11.8162
56.4300 4.8634
56.4400 14.9281
56.4500 11.3750
56.4600 16.6554
56.4700 13.2599
56.4800 10.4549
56.4900 11.2805
56.5000 8.1163
56.5100 10.5493
56.5200 6.1634
56.5300 11.4672
56.5400 5.6061
56.5500 6.5559
56.5600 7.0181
56.5700 3.7056
56.5800 11.6871
56.5900 6.8761
56.6000 5.7379
56.6100 4.7423
56.6200 6.9939
56.6300 6.6883
56.6400 9.9149
56.6500 4.9118
56.6600 4.9709
56.6700 7.6268
56.6800 6.4833
56.6900 7.3203
56.7000 2.2246
56.7100 7.0316
56.7200 2.8630
56.7300 9.7403
56.7400 3.6641
56.7500 10.9317
56.7600 4.0212
56.7700 9.6397
56.7800 5.2574
56.7900 9.1669
56.8000 3.1245
56.8100 4.0833
56.8200 2.0372
56.8300 5.7902
56.8400 4.7324
56.8500 5.5216
56.8600 5.7218
56.8700 3.5501
56.8800 2.9795
56.8900 1.2538
56.9000 11.7248
56.9100 3.5492
56.9200 8.6517
56.9300 4.9815
56.9400 7.5155
56.9500 7.2549
56.9600 8.9747
56.9700 5.0535
56.9800 4.8690
56.9900 5.9038
57.0000 6.3237
57.0100 3.5307
57.0200 7.2976
57.0300 6.7151
57.0400 8.7122
57.0500 9.3137
57.0600 9.9644
57.0700 7.7602
57.0800 7.6663
57.0900 8.6776
57.1000 14.1850
57.1100 9.4554
57.1200 6.5381
57.1300 7.3538
57.1400 5.8887
57.1500 7.4833
57.1600 10.0591
57.1700 8.2161
57.1800 8.9173
57.1900 7.0376
57.2000 7.2260
57.2100 8.3068
57.2200 6.2621
57.2300 4.3200
57.2400 11.4214
57.2500 11.5717
57.2600 3.7464
57.2700 5.1360
57.2800 3.8569
57.2900 8.7097
57.3000 4.4457
57.3100 12.4724
57.3200 2.3550
57.3300 5.1673
57.3400 5.5469
57.3500 8.6858
57.3600 8.0021
57.3700 7.5404
57.3800 5.8112
57.3900 2.5640
57.4000 4.5775
57.4100 9.2262
57.4200 5.6937
57.4300 8.9486
57.4400 4.8701
57.4500 7.7812
57.4600 5.5628
57.4700 3.8401
57.4800 4.8334
57.4900 6.5700
57.5000 6.3637
57.5100 4.2050
57.5200 5.9911
57.5300 1.2890
57.5400 6.1988
57.5500 4.8281
57.5600 3.6651
57.5700 6.2095
57.5800 9.8239
57.5900 6.7450
57.6000 10.0904
57.6100 5.4870
57.6200 11.9945
57.6300 4.0541
57.6400 8.5828
57.6500 4.9021
57.6600 10.8285
57.6700 4.4750
57.6800 5.6888
57.6900 7.4573
57.7000 3.4635
57.7100 5.4250
57.7200 6.8630
57.7300 8.7985
57.7400 10.4387
57.7500 5.0613
57.7600 14.0732
57.7700 5.3109
57.7800 6.9096
57.7900 6.9030
57.8000 12.7048
57.8100 6.1651
57.8200 14.0738
57.8300 4.4164
57.8400 19.8629
57.8500 3.4474
57.8600 7.2220
57.8700 11.3201
57.8800 4.9808
57.8900 14.8794
57.9000 6.0073
57.9100 11.7358
57.9200 13.0028
57.9300 14.5599
57.9400 15.4778
57.9500 6.6584
57.9600 13.4892
57.9700 9.5828
57.9800 8.3548
57.9900 6.0858
58.0000 7.1389
58.0100 5.5524
58.0200 8.4949
58.0300 4.8498
58.0400 7.3178
58.0500 3.0159
58.0600 8.0896
58.0700 6.6686
58.0800 8.5501
58.0900 6.7159
58.1000 4.2134
58.1100 4.8440
58.1200 7.4690
58.1300 6.0518
58.1400 3.8625
58.1500 6.1349
58.1600 6.4979
58.1700 5.3764
58.1800 6.1395
58.1900 5.3046
58.2000 6.3961
58.2100 9.6936
58.2200 6.9516
58.2300 5.6234
58.2400 7.7018
58.2500 4.0800
58.2600 3.4131
58.2700 9.9872
58.2800 7.1669
58.2900 6.7362
58.3000 7.5275
58.3100 5.4412
58.3200 4.5880
58.3300 13.5348
58.3400 9.3285
58.3500 9.9309
58.3600 9.2033
58.3700 6.1961
58.3800 17.3745
58.3900 6.8099
58.4000 14.6623
58.4100 9.1314
58.4200 14.6629
58.4300 10.8282
58.4400 7.1991
58.4500 7.1366
58.4600 9.9550
58.4700 11.4965
58.4800 10.5164
58.4900 9.0108
58.5000 10.2852
58.5100 6.7783
58.5200 11.5843
58.5300 7.8951
58.5400 6.8752
58.5500 4.0185
58.5600 8.4749
58.5700 7.7918
58.5800 4.6713
58.5900 6.5263
58.6000 6.9696
58.6100 3.7130
58.6200 7.8816
58.6300 3.2822
58.6400 6.2736
58.6500 6.3901
58.6600 5.8064
58.6700 6.5557
58.6800 7.0358
58.6900 5.1486
58.7000 4.9437
58.7100 4.0320
58.7200 10.1457
58.7300 4.9096
58.7400 10.5023
58.7500 6.9413
58.7600 4.3432
58.7700 2.7994
58.7800 6.2831
58.7900 6.8475
58.8000 13.1670
58.8100 7.8639
58.8200 11.0259
58.8300 3.2927
58.8400 5.1381
58.8500 4.1527
58.8600 7.7059
58.8700 2.5771
58.8800 6.8421
58.8900 5.3477
58.9000 5.3149
58.9100 6.0089
58.9200 1.8881
58.9300 0.2341
58.9400 6.9201
58.9500 6.2250
58.9600 5.1754
58.9700 7.0586
58.9800 6.8618
58.9900 7.6980
59.0000 5.7401
59.0100 3.5335
59.0200 5.0001
59.0300 1.2417
59.0400 4.8489
59.0500 3.4699
59.0600 9.0775
59.0700 7.9838
59.0800 3.3525
59.0900 6.7215
59.1000 11.1684
59.1100 11.0488
59.1200 4.4053
59.1300 7.5949
59.1400 2.9991
59.1500 5.9016
59.1600 6.7477
59.1700 7.3876
59.1800 6.3667
59.1900 5.8079
59.2000 6.9282
59.2100 6.6150
59.2200 12.2268
59.2300 4.5867
59.2400 2.2646
59.2500 5.0309
59.2600 1.7004
59.2700 5.8319
59.2800 4.2070
59.2900 7.5536
59.3000 12.0110
59.3100 6.0699
59.3200 7.1823
59.3300 4.1497
59.3400 10.6367
59.3500 7.4905
59.3600 8.2775
59.3700 4.1762
59.3800 6.6846
59.3900 8.8162
59.4000 6.0820
59.4100 5.3836
59.4200 4.8472
59.4300 12.2111
59.4400 4.2615
59.4500 11.3173
59.4600 5.0250
59.4700 1.7533
59.4800 5.8379
59.4900 4.3200
59.5000 4.9524
59.5100 4.7093
59.5200 5.0820
59.5300 3.7307
59.5400 9.4993
59.5500 0.4524
59.5600 6.0272
59.5700 4.5193
59.5800 7.3947
59.5900 5.4512
59.6000 8.4260
59.6100 8.2255
59.6200 5.7901
59.6300 9.3213
59.6400 7.9832
59.6500 5.1909
59.6600 3.4298
59.6700 6.6334
59.6800 1.3757
59.6900 4.0924
59.7000 3.7298
59.7100 2.5043
59.7200 3.9725
59.7300 2.5924
59.7400 10.8448
59.7500 6.0670
59.7600 9.3084
59.7700 4.9797
59.7800 8.3605
59.7900 8.1490
59.8000 6.5382
59.8100 4.1306
59.8200 5.9558
59.8300 5.4597
59.8400 4.5389
59.8500 6.4124
59.8600 4.4816
59.8700 9.1446
59.8800 8.0233
59.8900 9.9192
59.9000 8.9558
59.9100 10.0850
59.9200 8.3624
59.9300 8.9116
59.9400 3.9109
59.9500 6.1492
59.9600 7.3406
59.9700 8.1403
59.9800 7.4473
59.9900 3.6234
60.0000 8.3516
60.0100 6.6911
60.0200 9.7732
60.0300 6.0840
60.0400 7.2776
60.0500 8.8365
60.0600 6.1551
60.0700 4.2077
60.0800 5.6294
60.0900 7.4071
60.1000 4.9157
60.1100 6.1708
60.1200 5.2445
60.1300 6.7201
60.1400 6.3590
60.1500 4.9837
60.1600 9.2722
60.1700 5.9303
60.1800 5.3415
60.1900 9.7392
60.2000 12.1551
60.2100 5.3936
60.2200 7.4214
60.2300 7.9698
60.2400 11.2442
60.2500 5.6113
60.2600 8.4970
60.2700 3.2746
60.2800 4.3932
60.2900 6.4126
60.3000 7.8581
60.3100 8.7378
60.3200 13.7391
60.3300 5.6540
60.3400 3.1843
60.3500 10.2666
60.3600 7.8588
60.3700 9.6095
60.3800 3.3215
60.3900 9.0709
60.4000 5.7982
60.4100 7.5881
60.4200 6.2875
60.4300 6.2836
60.4400 3.3446
60.4500 5.2570
60.4600 6.4721
60.4700 6.6806
60.4800 4.1357
60.4900 3.0640
60.5000 9.9131
60.5100 7.0882
60.5200 5.8459
60.5300 7.3302
60.5400 11.3225
60.5500 11.0848
60.5600 5.9928
60.5700 4.5325
60.5800 8.9804
60.5900 6.6860
60.6000 7.1177
60.6100 7.6411
60.6200 10.0398
60.6300 5.9831
60.6400 7.2955
60.6500 6.7102
60.6600 6.2173
60.6700 8.4913
60.6800 8.4640
60.6900 6.4769
60.7000 6.4023
60.7100 8.4926
60.7200 1.5143
60.7300 10.9697
60.7400 2.3511
60.7500 9.7530
60.7600 4.4574
60.7700 12.4869
60.7800 5.7744
60.7900 6.5805
60.8000 9.2315
60.8100 6.4646
60.8200 10.2056
60.8300 9.1159
60.8400 6.8490
60.8500 4.1706
60.8600 4.9267
60.8700 9.0479
60.8800 7.5920
60.8900 9.6417
60.9000 3.5692
60.9100 13.2183
60.9200 4.8006
60.9300 12.1058
60.9400 2.8205
60.9500 11.1739
60.9600 2.3984
60.9700 10.1824
60.9800 6.9870
60.9900 11.4112
61.0000 5.4603
61.0100 8.8160
61.0200 4.0890
61.0300 8.7889
61.0400 3.8687
61.0500 9.2498
61.0600 2.2710
61.0700 11.0277
61.0800 7.6594
61.0900 5.5575
61.1000 6.9563
61.1100 11.8045
61.1200 9.9531
61.1300 10.4046
61.1400 3.1070
61.1500 5.2615
61.1600 4.0114
61.1700 7.0868
61.1800 4.4260
61.1900 6.7321
61.2000 6.9575
61.2100 2.9585
61.2200 3.8035
61.2300 4.3261
61.2400 6.1450
61.2500 5.1919
61.2600 8.8299
61.2700 6.4663
61.2800 4.7865
61.2900 7.1485
61.3000 5.1304
61.3100 6.2372
61.3200 15.4977
61.3300 3.8590
61.3400 14.8958
61.3500 7.7202
61.3600 10.8042
61.3700 5.0609
61.3800 8.0117
61.3900 3.0888
61.4000 8.2127
61.4100 7.7691
61.4200 5.5704
61.4300 6.6502
61.4400 2.8265
61.4500 6.4375
61.4600 10.1736
61.4700 4.7930
61.4800 3.1866
61.4900 3.5392
61.5000 10.1986
61.5100 4.5899
61.5200 6.0112
61.5300 3.3317
61.5400 5.7802
61.5500 4.5605
61.5600 3.8495
61.5700 4.4188
61.5800 6.3257
61.5900 4.1439
61.6000 3.3056
61.6100 3.0394
61.6200 4.3536
61.6300 5.3678
61.6400 7.6615
61.6500 1.4287
61.6600 7.2085
61.6700 6.0214
61.6800 4.0514
61.6900 4.8804
61.7000 4.1510
61.7100 6.1708
61.7200 7.9279
61.7300 9.9847
61.7400 4.9250
61.7500 8.9836
61.7600 10.0401
61.7700 3.4082
61.7800 10.3291
61.7900 2.2764
61.8000 6.5520
61.8100 6.6119
61.8200 6.0768
61.8300 6.3639
61.8400 1.6612
61.8500 7.5340
61.8600 5.4867
61.8700 3.3383
61.8800 7.5184
61.8900 6.4904
61.9000 9.0662
61.9100 6.6985
61.9200 7.7103
61.9300 6.7597
61.9400 7.2015
61.9500 6.5725
61.9600 7.8212
61.9700 3.4262
61.9800 11.1495
61.9900 7.8235
62.0000 3.7063
62.0100 7.9863
62.0200 4.5942
62.0300 5.8333
62.0400 5.6113
62.0500 5.5973
62.0600 8.1219
62.0700 7.5988
62.0800 9.2470
62.0900 9.3099
62.1000 9.2798
62.1100 5.9653
62.1200 7.4845
62.1300 5.1738
62.1400 4.6013
62.1500 8.1212
62.1600 6.6343
62.1700 11.9219
62.1800 7.2237
62.1900 5.3002
62.2000 2.2705
62.2100 7.8127
62.2200 7.2372
62.2300 5.9606
62.2400 4.9691
62.2500 5.7710
62.2600 2.7912
62.2700 4.7964
62.2800 6.6988
62.2900 5.1761
62.3000 9.1221
62.3100 3.2431
62.3200 5.1715
62.3300 12.4576
62.3400 7.0962
62.3500 7.8644
62.3600 4.3704
62.3700 9.2883
62.3800 4.6132
62.3900 6.0776
62.4000 3.3470
62.4100 7.2127
62.4200 6.3520
62.4300 4.6000
62.4400 4.9014
62.4500 8.4907
62.4600 9.0078
62.4700 3.8553
62.4800 6.3496
62.4900 4.0678
62.5000 6.9918
62.5100 3.4069
62.5200 8.4023
62.5300 5.4454
62.5400 8.3894
62.5500 6.3347
62.5600 4.6397
62.5700 5.1917
62.5800 9.3078
62.5900 8.4845
62.6000 10.2647
62.6100 9.5150
62.6200 4.1781
62.6300 5.9959
62.6400 2.1199
62.6500 3.8931
62.6600 2.9706
62.6700 4.6475
62.6800 5.1238
62.6900 3.9408
62.7000 8.4169
62.7100 5.9614
62.7200 5.4254
62.7300 2.3487
62.7400 10.2573
62.7500 3.1609
62.7600 6.4656
62.7700 3.4786
62.7800 3.7395
62.7900 5.4036
62.8000 7.9617
62.8100 7.1092
62.8200 1.9498
62.8300 3.2848
62.8400 1.1824
62.8500 4.0104
62.8600 3.5518
62.8700 5.1188
62.8800 2.5861
62.8900 4.7719
62.9000 3.5112
62.9100 6.6264
62.9200 9.4282
62.9300 8.6007
62.9400 13.2797
62.9500 7.3964
62.9600 9.2334
62.9700 9.3676
62.9800 7.3934
62.9900 7.4797
63.0000 6.2489
63.0100 6.9838
63.0200 5.0955
63.0300 16.5564
63.0400 4.8009
63.0500 8.7819
63.0600 4.8692
63.0700 8.1590
63.0800 10.0678
63.0900 10.6421
63.1000 7.9929
63.1100 4.8231
63.1200 4.4013
63.1300 8.2754
63.1400 7.1878
63.1500 5.3070
63.1600 6.9624
63.1700 11.4000
63.1800 13.7000
63.1900 7.4603
63.2000 6.1485
63.2100 5.9364
63.2200 7.1317
63.2300 5.2346
63.2400 3.5158
63.2500 3.2098
63.2600 5.5418
63.2700 6.8106
63.2800 6.0724
63.2900 9.1293
63.3000 7.5833
63.3100 8.9152
63.3200 6.4749
63.3300 5.8286
63.3400 6.6658
63.3500 8.1643
63.3600 12.4249
63.3700 5.7633
63.3800 9.8306
63.3900 9.5910
63.4000 7.7980
63.4100 5.8395
63.4200 7.0380
63.4300 8.3431
63.4400 3.9880
63.4500 5.0241
63.4600 3.9605
63.4700 1.0478
63.4800 1.3069
63.4900 4.8167
63.5000 8.4760
63.5100 5.3269
63.5200 4.7432
63.5300 3.3710
63.5400 3.6954
63.5500 6.0301
63.5600 5.1521
63.5700 5.0916
63.5800 4.1143
63.5900 2.6450
63.6000 5.0003
63.6100 4.6379
63.6200 8.2419
63.6300 6.5489
63.6400 1.7341
63.6500 4.8209
63.6600 6.6780
63.6700 3.2470
63.6800 6.9526
63.6900 3.9934
63.7000 5.9093
63.7100 4.6463
63.7200 3.1713
63.7300 4.5778
63.7400 9.0182
63.7500 6.0089
63.7600 6.1191
63.7700 8.0289
63.7800 2.1973
63.7900 5.0538
63.8000 1.8947
63.8100 3.8490
63.8200 7.9931
63.8300 3.5953
63.8400 4.9594
63.8500 5.3016
63.8600 3.7688
63.8700 5.7445
63.8800 6.1491
63.8900 6.2676
63.9000 2.3179
63.9100 5.8596
63.9200 8.5956
63.9300 7.1089
63.9400 13.5590
63.9500 10.1162
63.9600 7.7180
63.9700 5.3681
63.9800 5.2615
63.9900 9.1048
64.0000 7.0626
64.0100 7.3553
64.0200 4.4106
64.0300 6.4054
64.0400 4.0586
64.0500 4.8641
64.0600 5.0285
64.0700 10.6636
64.0800 4.3257
64.0900 7.8958
64.1000 5.3201
64.1100 4.8963
64.1200 12.7850
64.1300 9.0198
64.1400 8.4568
64.1500 5.6976
64.1600 9.6401
64.1700 3.7910
64.1800 8.6031
64.1900 7.4308
64.2000 2.4280
64.2100 4.9746
64.2200 7.4594
64.2300 6.7675
64.2400 5.8308
64.2500 7.4951
64.2600 5.6703
64.2700 12.5536
64.2800 6.3222
64.2900 3.7307
64.3000 2.6047
64.3100 4.1436
64.3200 9.0737
64.3300 3.6985
64.3400 6.1326
64.3500 6.8543
64.3600 9.1880
64.3700 7.6106
64.3800 7.0705
64.3900 7.5960
64.4000 5.2365
64.4100 4.4676
64.4200 12.0788
64.4300 7.4730
64.4400 14.3551
64.4500 17.0450
64.4600 7.5949
64.4700 5.4501
64.4800 8.5186
64.4900 8.2280
64.5000 6.2496
64.5100 6.7934
64.5200 5.1311
64.5300 9.5237
64.5400 9.4136
64.5500 8.2729
64.5600 8.4034
64.5700 9.7192
64.5800 8.2897
64.5900 12.5578
64.6000 14.6439
64.6100 12.8742
64.6200 16.4709
64.6300 19.8759
64.6400 18.4911
64.6500 11.8864
64.6600 24.8192
64.6700 11.0182
64.6800 17.2971
64.6900 11.3393
64.7000 20.4047
64.7100 15.9266
64.7200 20.7254
64.7300 11.5498
64.7400 14.7455
64.7500 20.2095
64.7600 20.1505
64.7700 12.9069
64.7800 17.4916
64.7900 18.1181
64.8000 20.7644
64.8100 19.5426
64.8200 20.1762
64.8300 20.8710
64.8400 15.5643
64.8500 20.0954
64.8600 25.9686
64.8700 19.3720
64.8800 20.0555
64.8900 20.0957
64.9000 20.1599
64.9100 20.3211
64.9200 22.3635
64.9300 19.9690
64.9400 16.6003
64.9500 16.8474
64.9600 10.2288
64.9700 18.5766
64.9800 15.5369
64.9900 20.5610
65.0000 14.2729
65.0100 10.2895
65.0200 15.2040
65.0300 21.4603
65.0400 14.1708
65.0500 15.7840
65.0600 12.4732
65.0700 10.6800
65.0800 11.8773
65.0900 11.2222
65.1000 10.1590
65.1100 9.8822
65.1200 11.4218
65.1300 7.0346
65.1400 9.1819
65.1500 6.1193
65.1600 10.9660
65.1700 8.3781
65.1800 11.0137
65.1900 5.0324
65.2000 6.9637
65.2100 5.8320
65.2200 7.6963
65.2300 4.4903
65.2400 4.5834
65.2500 5.3878
65.2600 3.4816
65.2700 3.3735
65.2800 6.9861
65.2900 9.4263
65.3000 6.9795
65.3100 10.9777
65.3200 12.0971
65.3300 11.7633
65.3400 18.0304
65.3500 15.5073
65.3600 22.9632
65.3700 9.0290
65.3800 14.9755
65.3900 7.5225
65.4000 15.6121
65.4100 9.5611
65.4200 12.4061
65.4300 6.9572
65.4400 9.8693
65.4500 9.0324
65.4600 10.7538
65.4700 9.8906
65.4800 7.2192
65.4900 5.8498
65.5000 1.7163
65.5100 7.1982
65.5200 9.1852
65.5300 4.2575
65.5400 4.6366
65.5500 5.8534
65.5600 3.8564
65.5700 6.3658
65.5800 12.3558
65.5900 5.9013
65.6000 12.8461
65.6100 10.0088
65.6200 12.3282
65.6300 7.1076
65.6400 9.8507
65.6500 9.6684
65.6600 7.3133
65.6700 5.8363
65.6800 9.9329
65.6900 4.5222
65.7000 6.6603
65.7100 6.0268
65.7200 7.2519
65.7300 9.4953
65.7400 4.2474
65.7500 10.7695
65.7600 7.4318
65.7700 8.9395
65.7800 4.1522
65.7900 13.9073
65.8000 6.4335
65.8100 10.1971
65.8200 6.7418
65.8300 7.0726
65.8400 4.3058
65.8500 6.6566
65.8600 6.9923
65.8700 6.5004
65.8800 3.6883
65.8900 8.8692
65.9000 8.2111
65.9100 7.4922
65.9200 7.5548
65.9300 2.7254
65.9400 7.3772
65.9500 4.0314
65.9600 7.6878
65.9700 5.4167
65.9800 10.7076
65.9900 6.8496
66.0000 10.3228
66.0100 10.8654
66.0200 15.4526
66.0300 13.8363
66.0400 8.4232
66.0500 6.7770
66.0600 10.0537
66.0700 7.2532
66.0800 7.4068
66.0900 6.0368
66.1000 9.6645
66.1100 9.2152
66.1200 6.1753
66.1300 6.2017
66.1400 3.1347
66.1500 9.6022
66.1600 6.6154
66.1700 5.1507
66.1800 5.1193
66.1900 10.1366
66.2000 3.3148
66.2100 12.0806
66.2200 8.1274
66.2300 4.5049
66.2400 9.7566
66.2500 6.2134
66.2600 7.3063
66.2700 3.8700
66.2800 7.1959
66.2900 7.2742
66.3000 5.8030
66.3100 11.5571
66.3200 4.9356
66.3300 6.9143
66.3400 6.0224
66.3500 3.7827
66.3600 3.0983
66.3700 4.5430
66.3800 7.7502
66.3900 2.9612
66.4000 5.3769
66.4100 4.7327
66.4200 8.1592
66.4300 11.2993
66.4400 7.3198
66.4500 11.7631
66.4600 10.7111
66.4700 2.9968
66.4800 4.4163
66.4900 7.8705
66.5000 4.3863
66.5100 7.3372
66.5200 5.8280
66.5300 3.5149
66.5400 2.2911
66.5500 6.5339
66.5600 6.8646
66.5700 10.0028
66.5800 5.4459
66.5900 8.4916
66.6000 12.0044
66.6100 6.9592
66.6200 5.8152
66.6300 8.1965
66.6400 5.8410
66.6500 7.0239
66.6600 4.4356
66.6700 8.4616
66.6800 11.4619
66.6900 8.7302
66.7000 4.9905
66.7100 5.5695
66.7200 5.4680
66.7300 7.7044
66.7400 6.9075
66.7500 6.9146
66.7600 9.7859
66.7700 6.7467
66.7800 12.9056
66.7900 8.9158
66.8000 12.6931
66.8100 9.7977
66.8200 9.4860
66.8300 4.6607
66.8400 8.8359
66.8500 5.3750
66.8600 11.6570
66.8700 7.7026
66.8800 6.8967
66.8900 4.1540
66.9000 9.4662
66.9100 10.1214
66.9200 7.7924
66.9300 11.9583
66.9400 5.3864
66.9500 10.0265
66.9600 7.3292
66.9700 12.9992
66.9800 4.5272
66.9900 8.4359
67.0000 7.3918
67.0100 8.3356
67.0200 5.3275
67.0300 8.1916
67.0400 4.8408
67.0500 5.3704
67.0600 4.2538
67.0700 7.7777
67.0800 6.6508
67.0900 9.7944
67.1000 6.3555
67.1100 7.2551
67.1200 3.8278
67.1300 5.2145
67.1400 3.5558
67.1500 7.4811
67.1600 5.3555
67.1700 3.9176
67.1800 5.9394
67.1900 6.4202
67.2000 5.0944
67.2100 6.9175
67.2200 4.7688
67.2300 8.4338
67.2400 4.6126
67.2500 5.3933
67.2600 12.3500
67.2700 8.4726
67.2800 13.1735
67.2900 8.8089
67.3000 13.2494
67.3100 10.4085
67.3200 9.6045
67.3300 13.1650
67.3400 10.2998
67.3500 14.2244
67.3600 4.6564
67.3700 5.0597
67.3800 8.9611
67.3900 5.4956
67.4000 8.8185
67.4100 5.9047
67.4200 7.4090
67.4300 6.6578
67.4400 10.7933
67.4500 4.7717
67.4600 7.6730
67.4700 5.0044
67.4800 3.3081
67.4900 3.2345
67.5000 6.1877
67.5100 6.7535
67.5200 8.7842
67.5300 5.1266
67.5400 6.4613
67.5500 3.1437
67.5600 3.1748
67.5700 3.0618
67.5800 1.9434
67.5900 3.5540
67.6000 5.0166
67.6100 5.1389
67.6200 5.9451
67.6300 4.2805
67.6400 5.4048
67.6500 6.4079
67.6600 6.6594
67.6700 6.3832
67.6800 3.9893
67.6900 4.1805
67.7000 5.3146
67.7100 6.2849
67.7200 8.9584
67.7300 5.4338
67.7400 8.2734
67.7500 8.6551
67.7600 6.2826
67.7700 8.5596
67.7800 9.1438
67.7900 4.5259
67.8000 6.2378
67.8100 4.0759
67.8200 6.7198
67.8300 9.1026
67.8400 3.1707
67.8500 2.3152
67.8600 2.7075
67.8700 4.9480
67.8800 2.6656
67.8900 2.6575
67.9000 1.8868
67.9100 6.9220
67.9200 9.0105
67.9300 1.0663
67.9400 5.3978
67.9500 4.5471
67.9600 7.0618
67.9700 3.8415
67.9800 7.4112
67.9900 3.0761
68.0000 4.0030
68.0100 6.8677
68.0200 2.3349
68.0300 8.7416
68.0400 5.7373
68.0500 5.9351
68.0600 8.2836
68.0700 8.2839
68.0800 4.7770
68.0900 5.5478
68.1000 4.3217
68.1100 7.1313
68.1200 4.1622
68.1300 8.9870
68.1400 6.6806
68.1500 8.4080
68.1600 1.8025
68.1700 6.2689
68.1800 8.4362
68.1900 9.5535
68.2000 12.4343
68.2100 10.1546
68.2200 9.6371
68.2300 5.5759
68.2400 10.5334
68.2500 7.9319
68.2600 9.8968
68.2700 9.8505
68.2800 10.4233
68.2900 9.1669
68.3000 6.0272
68.3100 10.5314
68.3200 12.5275
68.3300 13.5367
68.3400 10.8625
68.3500 7.4569
68.3600 8.0095
68.3700 7.2955
68.3800 8.6509
68.3900 5.3213
68.4000 3.8610
68.4100 7.4535
68.4200 8.0250
68.4300 7.4851
68.4400 9.3061
68.4500 5.3213
68.4600 12.2259
68.4700 9.1893
68.4800 7.6483
68.4900 8.2709
68.5000 7.4319
68.5100 5.9809
68.5200 3.9626
68.5300 5.9323
68.5400 4.2079
68.5500 5.0676
68.5600 3.9588
68.5700 5.6724
68.5800 6.5088
68.5900 2.2862
68.6000 5.6994
68.6100 3.3490
68.6200 4.6973
68.6300 6.0631
68.6400 8.3530
68.6500 4.5135
68.6600 7.7730
68.6700 6.0287
68.6800 5.4389
68.6900 2.7666
68.7000 9.5781
68.7100 5.4186
68.7200 16.1189
68.7300 6.7557
68.7400 18.2249
68.7500 5.0931
68.7600 9.0878
68.7700 8.1399
68.7800 6.5651
68.7900 6.1594
68.8000 9.4937
68.8100 10.1955
68.8200 3.0292
68.8300 5.2976
68.8400 3.6361
68.8500 4.2764
68.8600 4.4959
68.8700 1.0272
68.8800 1.4589
68.8900 7.3248
68.9000 6.3187
68.9100 6.5098
68.9200 7.1169
68.9300 1.5152
68.9400 7.4081
68.9500 8.2913
68.9600 9.8521
68.9700 5.4258
68.9800 6.5172
68.9900 5.0399
69.0000 8.0526
69.0100 7.6095
69.0200 6.5568
69.0300 5.4580
69.0400 4.7144
69.0500 3.0610
69.0600 9.6586
69.0700 8.0886
69.0800 13.0563
69.0900 3.8182
69.1000 5.7141
69.1100 6.6691
69.1200 6.9155
69.1300 2.7310
69.1400 3.4954
69.1500 3.7776
69.1600 7.4503
69.1700 7.2979
69.1800 7.4225
69.1900 3.2090
69.2000 5.1309
69.2100 5.3412
69.2200 4.5087
69.2300 3.2797
69.2400 2.1031
69.2500 3.4892
69.2600 4.2542
69.2700 3.3602
69.2800 5.9306
69.2900 6.9370
69.3000 2.1254
69.3100 3.4701
69.3200 5.4635
69.3300 7.7954
69.3400 8.6806
69.3500 4.4937
69.3600 4.4502
69.3700 6.7621
69.3800 5.1782
69.3900 10.2464
69.4000 3.2506
69.4100 6.2172
69.4200 6.2655
69.4300 6.1523
69.4400 7.9933
69.4500 3.3031
69.4600 8.0395
69.4700 2.5341
69.4800 4.0346
69.4900 4.7137
69.5000 5.1966
69.5100 5.6547
69.5200 8.9754
69.5300 6.4950
69.5400 5.0423
69.5500 11.7712
69.5600 8.8064
69.5700 7.7830
69.5800 8.2616
69.5900 7.1154
69.6000 6.6081
69.6100 6.5963
69.6200 3.1969
69.6300 6.1941
69.6400 5.1332
69.6500 3.4150
69.6600 8.3319
69.6700 7.5842
69.6800 5.6674
69.6900 8.1587
69.7000 4.8099
69.7100 4.9743
69.7200 10.3023
69.7300 5.8298
69.7400 5.8345
69.7500 4.7213
69.7600 5.8182
69.7700 10.3945
69.7800 5.8841
69.7900 10.7265
69.8000 4.8862
69.8100 3.2046
69.8200 10.2929
69.8300 5.7218
69.8400 8.4905
69.8500 6.0479
69.8600 6.0151
69.8700 9.4402
69.8800 5.0809
69.8900 5.5887
69.9000 3.7050
69.9100 7.9359
69.9200 1.5893
69.9300 5.3025
69.9400 8.2133
69.9500 6.8743
69.9600 8.7976
69.9700 7.4201
69.9800 7.7547
69.9900 10.1027
70.0000 8.4397
70.0100 4.9760
70.0200 11.0761
70.0300 7.1227
70.0400 4.0897
70.0500 4.0589
70.0600 9.3003
70.0700 6.0192
70.0800 5.3639
70.0900 4.5301
70.1000 3.1912
70.1100 12.2035
70.1200 4.7999
70.1300 7.3676
70.1400 6.4280
70.1500 6.8178
70.1600 0.4804
70.1700 12.1834
70.1800 7.0198
70.1900 8.8247
70.2000 4.3672
70.2100 7.9137
70.2200 7.4758
70.2300 7.3039
70.2400 5.2917
70.2500 1.3482
70.2600 5.6853
70.2700 3.8651
70.2800 7.7488
70.2900 5.3379
70.3000 4.7657
70.3100 11.8927
70.3200 5.9617
70.3300 8.5081
70.3400 3.5843
70.3500 7.3764
70.3600 5.2478
70.3700 5.9951
70.3800 5.2429
70.3900 10.8673
70.4000 4.0639
70.4100 6.1183
70.4200 5.2595
70.4300 5.8659
70.4400 6.9160
70.4500 8.2080
70.4600 2.2754
70.4700 7.8750
70.4800 11.7632
70.4900 3.3463
70.5000 5.3198
70.5100 8.9621
70.5200 4.8464
70.5300 5.2004
70.5400 3.9051
70.5500 8.5345
70.5600 4.5349
70.5700 12.8783
70.5800 4.9131
70.5900 15.9823
70.6000 8.2560
70.6100 20.9444
70.6200 14.9008
70.6300 14.8879
70.6400 7.9482
70.6500 13.8162
70.6600 11.1976
70.6700 10.5719
70.6800 6.5995
70.6900 5.9251
70.7000 1.0756
70.7100 8.7959
70.7200 6.0894
70.7300 5.0154
70.7400 10.9327
70.7500 10.0639
70.7600 8.3316
70.7700 4.5115
70.7800 8.2447
70.7900 7.3414
70.8000 7.7363
70.8100 5.9243
70.8200 5.3043
70.8300 4.1105
70.8400 2.3976
70.8500 6.9338
70.8600 5.6631
70.8700 2.2473
70.8800 4.3231
70.8900 2.5787
70.9000 5.8716
70.9100 7.4141
70.9200 2.1567
70.9300 8.2822
70.9400 3.2910
70.9500 10.6402
70.9600 7.7541
70.9700 6.2366
70.9800 7.2594
70.9900 7.2751
71.0000 7.5489
71.0100 4.6927
71.0200 4.0829
71.0300 3.0772
71.0400 3.6403
71.0500 1.5672
71.0600 7.3739
71.0700 1.6370
71.0800 8.0383
71.0900 3.4642
71.1000 8.1692
71.1100 3.2493
71.1200 8.5340
71.1300 3.9714
71.1400 9.0143
71.1500 5.0399
71.1600 6.9702
71.1700 2.6022
71.1800 8.0504
71.1900 4.1823
71.2000 4.5521
71.2100 5.6092
71.2200 6.8142
71.2300 6.4731
71.2400 6.4684
71.2500 3.6847
71.2600 3.5019
71.2700 2.2915
71.2800 7.8026
71.2900 5.9734
71.3000 5.2637
71.3100 2.1725
71.3200 2.9994
71.3300 2.6071
71.3400 3.4823
71.3500 3.1713
71.3600 3.5071
71.3700 3.2480
71.3800 5.0700
71.3900 3.1386
71.4000 5.5397
71.4100 4.0772
71.4200 5.2054
71.4300 2.9939
71.4400 5.0721
71.4500 9.2775
71.4600 4.0822
71.4700 7.9402
71.4800 5.0967
71.4900 11.2869
71.5000 5.8858
71.5100 3.4006
71.5200 6.5129
71.5300 3.1023
71.5400 3.8331
71.5500 8.0962
71.5600 6.1904
71.5700 12.0754
71.5800 7.4706
71.5900 9.2159
71.6000 6.6027
71.6100 6.5689
71.6200 11.1080
71.6300 5.7209
71.6400 12.4732
71.6500 6.8993
71.6600 4.4979
71.6700 8.8672
71.6800 6.1125
71.6900 2.5721
71.7000 5.8833
71.7100 6.5468
71.7200 3.3903
71.7300 9.4982
71.7400 3.6920
71.7500 8.3763
71.7600 6.3221
71.7700 6.6875
71.7800 4.2753
71.7900 5.2622
71.8000 12.7007
71.8100 9.9107
71.8200 4.5711
71.8300 4.1609
71.8400 2.1624
71.8500 3.6856
71.8600 12.1496
71.8700 7.4371
71.8800 5.2243
71.8900 6.1621
71.9000 4.7398
71.9100 6.5650
71.9200 7.3485
71.9300 3.4155
71.9400 6.3406
71.9500 15.1249
71.9600 6.2984
71.9700 4.6982
71.9800 7.5400
71.9900 3.0858
72.0000 7.1823
72.0100 5.4855
72.0200 5.0085
72.0300 8.0015
72.0400 3.4451
72.0500 4.2583
72.0600 3.7610
72.0700 4.6687
72.0800 6.5674
72.0900 4.5360
72.1000 6.3298
72.1100 7.9991
72.1200 6.5400
72.1300 6.0160
72.1400 3.7561
72.1500 6.1671
72.1600 8.2293
72.1700 3.6405
72.1800 4.8507
72.1900 8.0833
72.2000 6.3556
72.2100 5.9520
72.2200 4.4026
72.2300 11.1007
72.2400 6.8051
72.2500 14.0722
72.2600 4.5383
72.2700 6.2950
72.2800 7.3282
72.2900 5.3388
72.3000 5.0057
72.3100 6.5944
72.3200 6.9397
72.3300 3.8791
72.3400 7.5854
72.3500 4.1498
72.3600 10.3233
72.3700 11.4679
72.3800 7.3364
72.3900 4.4372
72.4000 7.7389
72.4100 4.6490
72.4200 8.5879
72.4300 5.6156
72.4400 5.0543
72.4500 9.4272
72.4600 6.5796
72.4700 10.3269
72.4800 7.1208
72.4900 5.1156
72.5000 5.3446
72.5100 5.9004
72.5200 5.4430
72.5300 7.5085
72.5400 2.3060
72.5500 3.3900
72.5600 5.3722
72.5700 9.0147
72.5800 2.3413
72.5900 5.7648
72.6000 6.4573
72.6100 11.1726
72.6200 5.3978
72.6300 5.3787
72.6400 7.7215
72.6500 9.5272
72.6600 9.3295
72.6700 7.5392
72.6800 8.2798
72.6900 5.6144
72.7000 10.7744
72.7100 4.2852
72.7200 8.4178
72.7300 4.4015
72.7400 12.7341
72.7500 3.7354
72.7600 9.1988
72.7700 4.4190
72.7800 5.4748
72.7900 4.2898
72.8000 6.2548
72.8100 6.2772
72.8200 5.3975
72.8300 8.3134
72.8400 3.1243
72.8500 4.4809
72.8600 3.6688
72.8700 7.8025
72.8800 3.3965
72.8900 6.1193
72.9000 1.3742
72.9100 4.9264
72.9200 8.7079
72.9300 3.5680
72.9400 7.1028
72.9500 3.8250
72.9600 3.0522
72.9700 6.5635
72.9800 4.3314
72.9900 8.1423
73.0000 5.4802
73.0100 7.8020
73.0200 3.0253
73.0300 2.1375
73.0400 4.9645
73.0500 3.6548
73.0600 8.2543
73.0700 4.9683
73.0800 2.4500
73.0900 4.9091
73.1000 6.1173
73.1100 9.4354
73.1200 7.1880
73.1300 6.0737
73.1400 10.1276
73.1500 3.7201
73.1600 8.0893
73.1700 6.4246
73.1800 6.6791
73.1900 5.3026
73.2000 4.4089
73.2100 2.2491
73.2200 5.0681
73.2300 2.0310
73.2400 6.0627
73.2500 4.1891
73.2600 10.1180
73.2700 5.2540
73.2800 4.8707
73.2900 4.8819
73.3000 6.4311
73.3100 11.1825
73.3200 4.6878
73.3300 5.8494
73.3400 1.5610
73.3500 9.0133
73.3600 3.3503
73.3700 1.1042
73.3800 2.3778
73.3900 3.2844
73.4000 5.9026
73.4100 2.7426
73.4200 10.1232
73.4300 4.1066
73.4400 6.6324
73.4500 3.8492
73.4600 4.8681
73.4700 6.8475
73.4800 6.8397
73.4900 6.3099
73.5000 4.7984
73.5100 3.2797
73.5200 6.8239
73.5300 7.4420
73.5400 8.4914
73.5500 9.0039
73.5600 6.3731
73.5700 8.7270
73.5800 7.6648
73.5900 5.2841
73.6000 5.9764
73.6100 7.9252
73.6200 4.8578
73.6300 9.1110
73.6400 7.0717
73.6500 12.6864
73.6600 9.8273
73.6700 6.4608
73.6800 4.2160
73.6900 2.0863
73.7000 8.0450
73.7100 5.1986
73.7200 6.1722
73.7300 10.9173
73.7400 11.0279
73.7500 5.5313
73.7600 6.0437
73.7700 4.1565
73.7800 9.6288
73.7900 5.9678
73.8000 11.1905
73.8100 9.5372
73.8200 5.4907
73.8300 5.4607
73.8400 7.7007
73.8500 8.0722
73.8600 4.9471
73.8700 3.9718
73.8800 7.1512
73.8900 4.5776
73.9000 5.1984
73.9100 5.3424
73.9200 3.5616
73.9300 5.9263
73.9400 5.9352
73.9500 7.1800
73.9600 8.2550
73.9700 8.6777
73.9800 4.5622
73.9900 8.3265
74.0000 8.9632
74.0100 5.2104
74.0200 5.4818
74.0300 2.4612
74.0400 5.8302
74.0500 5.0057
74.0600 7.1257
74.0700 6.8087
74.0800 1.1725
74.0900 4.7949
74.1000 5.2898
74.1100 7.1476
74.1200 6.8200
74.1300 3.5752
74.1400 4.7885
74.1500 6.0142
74.1600 6.2811
74.1700 2.9564
74.1800 1.0150
74.1900 6.2090
74.2000 2.4199
74.2100 5.6286
74.2200 3.1636
74.2300 9.9928
74.2400 3.5684
74.2500 10.1399
74.2600 4.5580
74.2700 13.1257
74.2800 4.6985
74.2900 8.4854
74.3000 9.3839
74.3100 6.7420
74.3200 3.8957
74.3300 4.9221
74.3400 9.0275
74.3500 7.4002
74.3600 9.1924
74.3700 2.8503
74.3800 4.2717
74.3900 5.1537
74.4000 5.0642
74.4100 8.8623
74.4200 7.7756
74.4300 5.2655
74.4400 5.2668
74.4500 11.2310
74.4600 4.8134
74.4700 5.1681
74.4800 2.3006
74.4900 7.1896
74.5000 11.4917
74.5100 5.5198
74.5200 4.9678
74.5300 4.0844
74.5400 2.8516
74.5500 5.5303
74.5600 3.9886
74.5700 6.6862
74.5800 4.4627
74.5900 6.3762
74.6000 6.6592
74.6100 8.1193
74.6200 2.9932
74.6300 6.0104
74.6400 2.5801
74.6500 3.7512
74.6600 7.1235
74.6700 2.8650
74.6800 3.7338
74.6900 3.9558
74.7000 5.1530
74.7100 4.3255
74.7200 9.2159
74.7300 7.7325
74.7400 9.7574
74.7500 4.2283
74.7600 15.0518
74.7700 9.0937
74.7800 18.5039
74.7900 4.5630
74.8000 3.1666
74.8100 5.3296
74.8200 7.5386
74.8300 6.1197
74.8400 5.5065
74.8500 3.1529
74.8600 5.0415
74.8700 6.2310
74.8800 7.6093
74.8900 7.9773
74.9000 5.5482
74.9100 7.6902
74.9200 1.2713
74.9300 4.0997
74.9400 5.2455
74.9500 5.4663
74.9600 3.4155
74.9700 5.1203
74.9800 5.2029
74.9900 8.8879
75.0000 5.2806
75.0100 10.3703
75.0200 10.6530
75.0300 8.3089
75.0400 6.0547
75.0500 5.5409
75.0600 10.4755
75.0700 5.2091
75.0800 9.3070
75.0900 4.3436
75.1000 8.3669
75.1100 6.6709
75.1200 5.3417
75.1300 6.5040
75.1400 9.4237
75.1500 6.4638
75.1600 4.4801
75.1700 9.2423
75.1800 7.4203
75.1900 6.9472
75.2000 3.9494
75.2100 8.1590
75.2200 8.2192
75.2300 6.3271
75.2400 4.7498
75.2500 4.3866
75.2600 8.8115
75.2700 4.8884
75.2800 7.7511
75.2900 8.3348
75.3000 3.5766
75.3100 3.5404
75.3200 2.2840
75.3300 6.2597
75.3400 4.1903
75.3500 3.5964
75.3600 7.2785
75.3700 6.0367
75.3800 7.4210
75.3900 2.1077
75.4000 3.7582
75.4100 7.1264
75.4200 8.8829
75.4300 7.5187
75.4400 12.0682
75.4500 3.0132
75.4600 4.4031
75.4700 8.1466
75.4800 7.0281
75.4900 4.2461
75.5000 5.8439
75.5100 4.0580
75.5200 4.7601
75.5300 12.9606
75.5400 6.2605
75.5500 7.8723
75.5600 5.6554
75.5700 7.3388
75.5800 5.8824
75.5900 6.7106
75.6000 9.5676
75.6100 5.0858
75.6200 5.7057
75.6300 8.7003
75.6400 4.9144
75.6500 8.0555
75.6600 2.2654
75.6700 5.1686
75.6800 4.1344
75.6900 5.7509
75.7000 4.7184
75.7100 8.2599
75.7200 4.1009
75.7300 4.2762
75.7400 4.1896
75.7500 4.1052
75.7600 5.4445
75.7700 8.0479
75.7800 7.8631
75.7900 6.4811
75.8000 11.6377
75.8100 5.1018
75.8200 4.7868
75.8300 7.9403
75.8400 6.5795
75.8500 4.1937
75.8600 10.3698
75.8700 6.4334
75.8800 7.6502
75.8900 5.1093
75.9000 6.1986
75.9100 3.5184
75.9200 8.6393
75.9300 6.2553
75.9400 1.1805
75.9500 1.9213
75.9600 0.1012
75.9700 3.2219
75.9800 3.9287
75.9900 6.4662
76.0000 5.5760
76.0100 6.0340
76.0200 5.6767
76.0300 4.9415
76.0400 4.6527
76.0500 8.2962
76.0600 5.4966
76.0700 3.1559
76.0800 4.7914
76.0900 6.5902
76.1000 6.4000
76.1100 6.8316
76.1200 4.2741
76.1300 3.7628
76.1400 3.3276
76.1500 3.2701
76.1600 3.9571
76.1700 5.4088
76.1800 4.2928
76.1900 8.9300
76.2000 6.9200
76.2100 6.9382
76.2200 5.7308
76.2300 7.3588
76.2400 3.9213
76.2500 2.4351
76.2600 7.0349
76.2700 3.7737
76.2800 6.6900
76.2900 9.1153
76.3000 6.2288
76.3100 3.4922
76.3200 8.6500
76.3300 4.6308
76.3400 3.5993
76.3500 4.4728
76.3600 9.0943
76.3700 4.8507
76.3800 4.0654
76.3900 3.0876
76.4000 2.0814
76.4100 2.9926
76.4200 4.8988
76.4300 8.5975
76.4400 5.5922
76.4500 5.9702
76.4600 4.7072
76.4700 8.2215
76.4800 5.5176
76.4900 8.2654
76.5000 8.9259
76.5100 7.4135
76.5200 3.2882
76.5300 3.2667
76.5400 6.5959
76.5500 7.6552
76.5600 12.8260
76.5700 3.9575
76.5800 8.9660
76.5900 5.0226
76.6000 7.2950
76.6100 4.6049
76.6200 9.3108
76.6300 3.6138
76.6400 10.0523
76.6500 10.2077
76.6600 5.4988
76.6700 12.7096
76.6800 8.2930
76.6900 10.0401
76.7000 3.1392
76.7100 7.8323
76.7200 4.0956
76.7300 5.3889
76.7400 6.9906
76.7500 1.9971
76.7600 4.3022
76.7700 3.2964
76.7800 6.3390
76.7900 6.8944
76.8000 9.7516
76.8100 9.1211
76.8200 7.3427
76.8300 8.1030
76.8400 2.6721
76.8500 2.1657
76.8600 3.7303
76.8700 7.4931
76.8800 6.2293
76.8900 6.9670
76.9000 6.0091
76.9100 9.1637
76.9200 3.2945
76.9300 6.3028
76.9400 6.8152
76.9500 6.8152
76.9600 5.7183
76.9700 4.6658
76.9800 4.9898
76.9900 5.0077
77.0000 3.6605
77.0100 6.3254
77.0200 4.0856
77.0300 5.3724
77.0400 8.1494
77.0500 6.0371
77.0600 3.5534
77.0700 9.1161
77.0800 7.2523
77.0900 5.2702
77.1000 7.8391
77.1100 10.5627
77.1200 8.8269
77.1300 5.2355
77.1400 2.6987
77.1500 5.3576
77.1600 3.2703
77.1700 5.1799
77.1800 3.4939
77.1900 7.0287
77.2000 5.7326
77.2100 6.1843
77.2200 8.5770
77.2300 4.7366
77.2400 7.1341
77.2500 3.0373
77.2600 7.2322
77.2700 4.6608
77.2800 9.7616
77.2900 5.7876
77.3000 3.2376
77.3100 7.6649
77.3200 6.0830
77.3300 2.1422
77.3400 5.8969
77.3500 7.2350
77.3600 2.9089
77.3700 3.8731
77.3800 3.9557
77.3900 4.5279
77.4000 5.9652
77.4100 9.3500
77.4200 6.6950
77.4300 3.6066
77.4400 6.2009
77.4500 2.7135
77.4600 3.9524
77.4700 2.0523
77.4800 4.3458
77.4900 3.7347
77.5000 5.1329
77.5100 11.2762
77.5200 4.2152
77.5300 2.3735
77.5400 7.8214
77.5500 4.9280
77.5600 6.1873
77.5700 7.7367
77.5800 3.5310
77.5900 4.9385
77.6000 6.7131
77.6100 8.9456
77.6200 6.2076
77.6300 6.2764
77.6400 3.7477
77.6500 4.9065
77.6600 2.9160
77.6700 1.1876
77.6800 8.3926
77.6900 5.7408
77.7000 5.2356
77.7100 7.6840
77.7200 5.2795
77.7300 5.2076
77.7400 5.6654
77.7500 1.4023
77.7600 3.8630
77.7700 5.1450
77.7800 3.8505
77.7900 1.5769
77.8000 3.1723
77.8100 3.5871
77.8200 5.2204
77.8300 4.1854
77.8400 3.8030
77.8500 6.3373
77.8600 5.4555
77.8700 4.4306
77.8800 8.0436
77.8900 9.8926
77.9000 5.9813
77.9100 6.9551
77.9200 5.8990
77.9300 5.6461
77.9400 2.9213
77.9500 5.9274
77.9600 9.3721
77.9700 5.2059
77.9800 12.1652
77.9900 6.8272
78.0000 10.4214
78.0100 1.7794
78.0200 5.4654
78.0300 5.3907
78.0400 13.1128
78.0500 12.5400
78.0600 6.5517
78.0700 12.9455
78.0800 5.9482
78.0900 7.2095
78.1000 7.9380
78.1100 4.5964
78.1200 3.8626
78.1300 6.4646
78.1400 8.4186
78.1500 5.0269
78.1600 9.3136
78.1700 5.8940
78.1800 7.5218
78.1900 9.3408
78.2000 7.3773
78.2100 7.7598
78.2200 9.9192
78.2300 8.2521
78.2400 5.7897
78.2500 2.6825
78.2600 10.9717
78.2700 4.6363
78.2800 6.3650
78.2900 6.3243
78.3000 5.2325
78.3100 4.1702
78.3200 4.0916
78.3300 7.0085
78.3400 9.9063
78.3500 6.9514
78.3600 4.1321
78.3700 10.1314
78.3800 3.1372
78.3900 4.0688
78.4000 7.2523
78.4100 5.8562
78.4200 6.6279
78.4300 2.7829
78.4400 5.5659
78.4500 3.0441
78.4600 4.6044
78.4700 5.8656
78.4800 5.6939
78.4900 5.2860
78.5000 9.5601
78.5100 6.5326
78.5200 11.7416
78.5300 3.2179
78.5400 9.4660
78.5500 5.3729
78.5600 4.7971
78.5700 6.4622
78.5800 4.0152
78.5900 5.1570
78.6000 3.1599
78.6100 6.2905
78.6200 2.3470
78.6300 8.3243
78.6400 7.3735
78.6500 5.3560
78.6600 7.2381
78.6700 8.4328
78.6800 2.1222
78.6900 4.4459
78.7000 3.2110
78.7100 1.0940
78.7200 3.9947
78.7300 10.3015
78.7400 6.0755
78.7500 5.8741
78.7600 5.3624
78.7700 5.0805
78.7800 5.0649
78.7900 4.6038
78.8000 6.0627
78.8100 8.3737
78.8200 11.6354
78.8300 3.4233
78.8400 2.5666
78.8500 5.5914
78.8600 3.6820
78.8700 7.5738
78.8800 3.6977
78.8900 4.0383
78.9000 5.7487
78.9100 7.5820
78.9200 7.6965
78.9300 5.0143
78.9400 3.9431
78.9500 5.5171
78.9600 5.6108
78.9700 4.1064
78.9800 6.6343
78.9900 7.7749
79.0000 6.3485
79.0100 8.1216
79.0200 4.3598
79.0300 6.4559
79.0400 5.4252
79.0500 10.0708
79.0600 6.2904
79.0700 6.0985
79.0800 3.8886
79.0900 5.0867
79.1000 6.1298
79.1100 5.4987
79.1200 8.4814
79.1300 4.1699
79.1400 7.1735
79.1500 4.6601
79.1600 6.7586
79.1700 5.3684
79.1800 3.8383
79.1900 4.7019
79.2000 4.0008
79.2100 2.8683
79.2200 5.5276
79.2300 6.5182
79.2400 3.6029
79.2500 3.1002
79.2600 4.5093
79.2700 6.0733
79.2800 3.3602
79.2900 4.6912
79.3000 8.3565
79.3100 8.5347
79.3200 7.1711
79.3300 1.8892
79.3400 5.8585
79.3500 1.3059
79.3600 11.4183
79.3700 6.2694
79.3800 4.1445
79.3900 3.3408
79.4000 5.0391
79.4100 7.6124
79.4200 7.5130
79.4300 4.2731
79.4400 3.5008
79.4500 4.4201
79.4600 4.1604
79.4700 3.2480
79.4800 3.8588
79.4900 5.5065
79.5000 3.7696
79.5100 7.4536
79.5200 4.9162
79.5300 6.4660
79.5400 6.9652
79.5500 9.9623
79.5600 8.2639
79.5700 8.3391
79.5800 5.2043
79.5900 4.9094
79.6000 1.4324
79.6100 2.2571
79.6200 7.2675
79.6300 3.1899
79.6400 6.5552
79.6500 5.4007
79.6600 5.9573
79.6700 6.6456
79.6800 7.0817
79.6900 2.5068
79.7000 9.1710
79.7100 5.5087
79.7200 4.0091
79.7300 8.6567
79.7400 14.0997
79.7500 13.2351
79.7600 11.5574
79.7700 4.9737
79.7800 6.1603
79.7900 3.5456
79.8000 7.6132
79.8100 4.4129
79.8200 6.3401
79.8300 6.0469
79.8400 8.0023
79.8500 3.8509
79.8600 7.5796
79.8700 9.6425
79.8800 4.3955
79.8900 3.2174
79.9000 12.4331
79.9100 6.8213
79.9200 8.0823
79.9300 5.5841
79.9400 5.7648
79.9500 5.5516
79.9600 3.6852
79.9700 7.7969
79.9800 3.7674
79.9900 7.3387
80.0000 12.1150
80.0100 7.7562
80.0200 10.1965
80.0300 2.4415
80.0400 6.6309
80.0500 4.2677
80.0600 10.4217
80.0700 7.0083
80.0800 3.1003
80.0900 6.0364
80.1000 7.3774
80.1100 3.9181
80.1200 11.3955
80.1300 8.2097
80.1400 11.6872
80.1500 4.2810
80.1600 7.0849
80.1700 4.0885
80.1800 8.2287
80.1900 1.0432
80.2000 3.8682
80.2100 5.2469
80.2200 3.6918
80.2300 10.0721
80.2400 5.2549
80.2500 4.5400
80.2600 10.3641
80.2700 6.2832
80.2800 7.8552
80.2900 5.2941
80.3000 7.1002
80.3100 5.5785
80.3200 6.9982
80.3300 4.1020
80.3400 3.1023
80.3500 11.7164
80.3600 5.1199
80.3700 5.5471
80.3800 8.6394
80.3900 9.1235
80.4000 5.2711
80.4100 2.8844
80.4200 6.2804
80.4300 4.6070
80.4400 8.3769
80.4500 7.3797
80.4600 11.0521
80.4700 6.3890
80.4800 6.6128
80.4900 2.4603
80.5000 6.2883
80.5100 4.5842
80.5200 6.1573
80.5300 4.9633
80.5400 5.0915
80.5500 6.2295
80.5600 4.0121
80.5700 4.9017
80.5800 7.5619
80.5900 3.1130
80.6000 4.7434
80.6100 4.4663
80.6200 3.2880
80.6300 7.1946
80.6400 2.2769
80.6500 8.9424
80.6600 6.1648
80.6700 7.0852
80.6800 10.7071
80.6900 13.6677
80.7000 6.1383
80.7100 11.0213
80.7200 9.6624
80.7300 10.2920
80.7400 3.2387
80.7500 8.7279
80.7600 4.3044
80.7700 9.6649
80.7800 4.9884
80.7900 4.4230
80.8000 5.8581
80.8100 7.1008
80.8200 6.5220
80.8300 4.1844
80.8400 8.2153
80.8500 4.1025
80.8600 5.6792
80.8700 6.7775
80.8800 6.9003
80.8900 8.3705
80.9000 11.1788
80.9100 8.1193
80.9200 9.8503
80.9300 4.2298
80.9400 4.9557
80.9500 6.5573
80.9600 6.3748
80.9700 7.0859
80.9800 9.2378
80.9900 7.5555
81.0000 6.6875
81.0100 6.6677
81.0200 9.1419
81.0300 4.0363
81.0400 6.9683
81.0500 3.3470
81.0600 4.1159
81.0700 5.9067
81.0800 8.9326
81.0900 7.3033
81.1000 8.1682
81.1100 7.4994
81.1200 4.5881
81.1300 4.8869
81.1400 2.8412
81.1500 5.8881
81.1600 6.3468
81.1700 11.3284
81.1800 9.5868
81.1900 7.6646
81.2000 6.4940
81.2100 6.5259
81.2200 7.1747
81.2300 10.2323
81.2400 4.9623
81.2500 6.6768
81.2600 3.2020
81.2700 9.3334
81.2800 5.3104
81.2900 5.2260
81.3000 3.2419
81.3100 3.7543
81.3200 4.1078
81.3300 7.0192
81.3400 8.8623
81.3500 12.5228
81.3600 6.6781
81.3700 11.5569
81.3800 7.0522
81.3900 6.0120
81.4000 5.0824
81.4100 5.7787
81.4200 5.4943
81.4300 9.1310
81.4400 3.5639
81.4500 4.3041
81.4600 0.8663
81.4700 5.9191
81.4800 5.4085
81.4900 9.2336
81.5000 6.2373
81.5100 9.6191
81.5200 7.2454
81.5300 10.5186
81.5400 4.7697
81.5500 9.0293
81.5600 4.7367
81.5700 10.9932
81.5800 5.2688
81.5900 9.4203
81.6000 7.7460
81.6100 3.0836
81.6200 5.4527
81.6300 8.7261
81.6400 8.8944
81.6500 4.9408
81.6600 7.8709
81.6700 12.6055
81.6800 7.7583
81.6900 9.1630
81.7000 6.8512
81.7100 10.1043
81.7200 9.3709
81.7300 5.5176
81.7400 6.8654
81.7500 13.5404
81.7600 12.0921
81.7700 9.0657
81.7800 7.1695
81.7900 13.6654
81.8000 12.6419
81.8100 12.0781
81.8200 21.0238
81.8300 10.5299
81.8400 17.1062
81.8500 15.8792
81.8600 14.2216
81.8700 20.2806
81.8800 15.8077
81.8900 21.6431
81.9000 27.9196
81.9100 26.4031
81.9200 20.3704
81.9300 23.7890
81.9400 23.3266
81.9500 20.4665
81.9600 27.4321
81.9700 21.4963
81.9800 29.9880
81.9900 39.3447
82.0000 34.6347
82.0100 25.5855
82.0200 37.2524
82.0300 33.6573
82.0400 21.5520
82.0500 25.7847
82.0600 26.4042
82.0700 26.8595
82.0800 30.9836
82.0900 25.6508
82.1000 33.6152
82.1100 28.5431
82.1200 25.2966
82.1300 32.2885
82.1400 30.7353
82.1500 34.9606
82.1600 28.2238
82.1700 27.8462
82.1800 34.8198
82.1900 27.7451
82.2000 23.5347
82.2100 21.6962
82.2200 20.8699
82.2300 27.8016
82.2400 23.3631
82.2500 21.8719
82.2600 17.7556
82.2700 10.7981
82.2800 31.4909
82.2900 21.0871
82.3000 21.1814
82.3100 15.4920
82.3200 16.4954
82.3300 19.8969
82.3400 13.5187
82.3500 23.6057
82.3600 15.6799
82.3700 19.5143
82.3800 13.3671
82.3900 10.6497
82.4000 13.4190
82.4100 19.1262
82.4200 7.8207
82.4300 18.5892
82.4400 11.2862
82.4500 12.1575
82.4600 11.5834
82.4700 10.1822
82.4800 5.7973
82.4900 6.5811
82.5000 13.9442
82.5100 11.2152
82.5200 4.9476
82.5300 9.1546
82.5400 6.3057
82.5500 10.1449
82.5600 5.8727
82.5700 10.5911
82.5800 4.1764
82.5900 7.6758
82.6000 2.9517
82.6100 5.5497
82.6200 4.6440
82.6300 1.1733
82.6400 8.6230
82.6500 11.9084
82.6600 9.6019
82.6700 9.2110
82.6800 5.5285
82.6900 7.1501
82.7000 4.0927
82.7100 5.4686
82.7200 7.2164
82.7300 8.8130
82.7400 6.6002
82.7500 4.0608
82.7600 3.0115
82.7700 4.6275
82.7800 6.5531
82.7900 5.8460
82.8000 2.6870
82.8100 6.2664
82.8200 4.7749
82.8300 4.4334
82.8400 4.2407
82.8500 6.0607
82.8600 2.1570
82.8700 5.1273
82.8800 13.2964
82.8900 4.8966
82.9000 5.2712
82.9100 6.9841
82.9200 11.5938
82.9300 9.2949
82.9400 10.7562
82.9500 13.6055
82.9600 14.6991
82.9700 5.4968
82.9800 6.6725
82.9900 4.7849
83.0000 7.2193
83.0100 4.8026
83.0200 4.2443
83.0300 9.1309
83.0400 7.0970
83.0500 5.8954
83.0600 4.1072
83.0700 11.0939
83.0800 5.1138
83.0900 9.7967
83.1000 8.7072
83.1100 10.2506
83.1200 9.2547
83.1300 4.5978
83.1400 8.0974
83.1500 7.0467
83.1600 7.8055
83.1700 8.1232
83.1800 3.4326
83.1900 6.1690
83.2000 7.6683
83.2100 6.3406
83.2200 7.5941
83.2300 7.8715
83.2400 5.2820
83.2500 1.5939
83.2600 3.4255
83.2700 7.1402
83.2800 4.1751
83.2900 5.2602
83.3000 6.7833
83.3100 5.6182
83.3200 6.7443
83.3300 3.5123
83.3400 3.7302
83.3500 6.6926
83.3600 4.4247
83.3700 7.9493
83.3800 6.5694
83.3900 9.0633
83.4000 6.6277
83.4100 5.6442
83.4200 6.1442
83.4300 9.3072
83.4400 7.1804
83.4500 3.6077
83.4600 4.9808
83.4700 5.8467
83.4800 3.2095
83.4900 6.9252
83.5000 3.0547
83.5100 5.3815
83.5200 4.1288
83.5300 6.7210
83.5400 8.8325
83.5500 8.2158
83.5600 9.9101
83.5700 5.6668
83.5800 5.9950
83.5900 6.2834
83.6000 7.3192
83.6100 8.4942
83.6200 5.6881
83.6300 5.5194
83.6400 13.4617
83.6500 5.6632
83.6600 9.0473
83.6700 8.1965
83.6800 7.1814
83.6900 11.3782
83.7000 8.4517
83.7100 4.7901
83.7200 5.8966
83.7300 5.8717
83.7400 5.4937
83.7500 8.7393
83.7600 7.6411
83.7700 9.2371
83.7800 11.7316
83.7900 7.6040
83.8000 7.2997
83.8100 10.0318
83.8200 9.4260
83.8300 7.0303
83.8400 8.1662
83.8500 6.4786
83.8600 6.3427
83.8700 6.3604
83.8800 5.2159
83.8900 3.3448
83.9000 6.2374
83.9100 10.2772
83.9200 8.1337
83.9300 5.2129
83.9400 6.5364
83.9500 7.0141
83.9600 5.8056
83.9700 7.1977
83.9800 7.5792
83.9900 6.6603
84.0000 7.1594
84.0100 3.5116
84.0200 6.4258
84.0300 6.3657
84.0400 9.1054
84.0500 8.6929
84.0600 9.6507
84.0700 8.7246
84.0800 8.2939
84.0900 8.8165
84.1000 6.5896
84.1100 8.5411
84.1200 7.7805
84.1300 12.4029
84.1400 7.4463
84.1500 10.5692
84.1600 6.6531
84.1700 8.5006
84.1800 4.7890
84.1900 7.6012
84.2000 2.8030
84.2100 7.9228
84.2200 7.1034
84.2300 7.3681
84.2400 7.2482
84.2500 5.0238
84.2600 2.2045
84.2700 8.7059
84.2800 12.1997
84.2900 12.7186
84.3000 6.4909
84.3100 7.8889
84.3200 7.9680
84.3300 7.4167
84.3400 9.2260
84.3500 4.0185
84.3600 4.4054
84.3700 8.6697
84.3800 7.1589
84.3900 4.6783
84.4000 5.4088
84.4100 6.8620
84.4200 6.7519
84.4300 3.5781
84.4400 4.0287
84.4500 5.5247
84.4600 7.6936
84.4700 4.3608
84.4800 4.8077
84.4900 5.5280
84.5000 2.6480
84.5100 6.1262
84.5200 9.3609
84.5300 3.2420
84.5400 9.0705
84.5500 5.1011
84.5600 4.7964
84.5700 6.1329
84.5800 6.2748
84.5900 4.4911
84.6000 4.2537
84.6100 4.1870
84.6200 3.8627
84.6300 5.7513
84.6400 6.9575
84.6500 10.2879
84.6600 8.8758
84.6700 10.4908
84.6800 3.7850
84.6900 9.1396
84.7000 3.3011
84.7100 11.3414
84.7200 6.9288
84.7300 10.8661
84.7400 8.5513
84.7500 10.4430
84.7600 8.4038
84.7700 5.4641
84.7800 7.6216
84.7900 4.7658
84.8000 6.0784
84.8100 5.5793
84.8200 4.8036
84.8300 7.3643
84.8400 7.2906
84.8500 7.4911
84.8600 9.4773
84.8700 8.8878
84.8800 2.8673
84.8900 10.3905
84.9000 5.5797
84.9100 6.5104
84.9200 5.7507
84.9300 5.8815
84.9400 1.6950
84.9500 5.1371
84.9600 7.0064
84.9700 11.8664
84.9800 3.1787
84.9900 13.9895
85.0000 7.3480
85.0100 13.3564
85.0200 6.5969
85.0300 12.8292
85.0400 5.2348
85.0500 5.5150
85.0600 9.7979
85.0700 6.1344
85.0800 4.2948
85.0900 7.5713
85.1000 6.9586
85.1100 9.5247
85.1200 4.8563
85.1300 3.5926
85.1400 13.7289
85.1500 12.1363
85.1600 7.9932
85.1700 10.0837
85.1800 8.1016
85.1900 5.1577
85.2000 11.2534
85.2100 7.0190
85.2200 11.8379
85.2300 8.3656
85.2400 10.8755
85.2500 8.3069
85.2600 7.6266
85.2700 5.9403
85.2800 5.3192
85.2900 5.9748
85.3000 3.9630
85.3100 4.5387
85.3200 8.7557
85.3300 6.7281
85.3400 4.8257
85.3500 4.7191
85.3600 1.6920
85.3700 5.9540
85.3800 3.7913
85.3900 7.1507
85.4000 7.6669
85.4100 11.8684
85.4200 8.5857
85.4300 6.4754
85.4400 5.1986
85.4500 5.6000
85.4600 3.4370
85.4700 8.2768
85.4800 6.2558
85.4900 9.0025
85.5000 3.3232
85.5100 7.4904
85.5200 9.5119
85.5300 8.5822
85.5400 7.2655
85.5500 9.3199
85.5600 3.2881
85.5700 5.9708
85.5800 6.5609
85.5900 4.3526
85.6000 9.6084
85.6100 7.5146
85.6200 6.2588
85.6300 6.9541
85.6400 7.3441
85.6500 6.4374
85.6600 7.5238
85.6700 4.1538
85.6800 7.6037
85.6900 9.1777
85.7000 10.2023
85.7100 6.6952
85.7200 3.0147
85.7300 4.5621
85.7400 7.2043
85.7500 3.6852
85.7600 3.6300
85.7700 4.0883
85.7800 3.3329
85.7900 2.8535
85.8000 8.1947
85.8100 8.8150
85.8200 10.3582
85.8300 7.4754
85.8400 9.9909
85.8500 6.6611
85.8600 10.0021
85.8700 7.0102
85.8800 6.4952
85.8900 3.6058
85.9000 7.6223
85.9100 9.2773
85.9200 9.2630
85.9300 3.2179
85.9400 16.3774
85.9500 11.0632
85.9600 10.6242
85.9700 7.8293
85.9800 6.2754
85.9900 5.8490
86.0000 4.2432
86.0100 9.8454
86.0200 11.5119
86.0300 7.9113
86.0400 7.0823
86.0500 6.7657
86.0600 4.2364
86.0700 2.4375
86.0800 5.9972
86.0900 5.5092
86.1000 11.0207
86.1100 5.9451
86.1200 9.3520
86.1300 4.6365
86.1400 7.0895
86.1500 1.6614
86.1600 8.6610
86.1700 3.3854
86.1800 4.2678
86.1900 1.2525
86.2000 6.9230
86.2100 14.5402
86.2200 7.6614
86.2300 8.4338
86.2400 5.3868
86.2500 8.1313
86.2600 6.0562
86.2700 3.4786
86.2800 5.5284
86.2900 10.6818
86.3000 6.9322
86.3100 1.9702
86.3200 4.9121
86.3300 4.9382
86.3400 13.7948
86.3500 9.6025
86.3600 9.4725
86.3700 6.7119
86.3800 4.5746
86.3900 5.8032
86.4000 9.4417
86.4100 8.8141
86.4200 9.1785
86.4300 6.6522
86.4400 2.6112
86.4500 10.9454
86.4600 7.5525
86.4700 11.5554
86.4800 5.3972
86.4900 6.8933
86.5000 4.9440
86.5100 11.7258
86.5200 2.3406
86.5300 13.2349
86.5400 6.8956
86.5500 9.5978
86.5600 4.1881
86.5700 5.0356
86.5800 1.3253
86.5900 3.2048
86.6000 6.2190
86.6100 4.0061
86.6200 9.9337
86.6300 2.1168
86.6400 4.2901
86.6500 7.2145
86.6600 3.2329
86.6700 4.4152
86.6800 4.8889
86.6900 9.4712
86.7000 5.4889
86.7100 7.8277
86.7200 4.6308
86.7300 6.0793
86.7400 4.3328
86.7500 5.0617
86.7600 5.3714
86.7700 5.0201
86.7800 7.8910
86.7900 8.0975
86.8000 3.7216
86.8100 5.1591
86.8200 7.7329
86.8300 6.7498
86.8400 7.1952
86.8500 7.1414
86.8600 3.1324
86.8700 1.0894
86.8800 4.9933
86.8900 6.7154
86.9000 4.6837
86.9100 3.1747
86.9200 5.2514
86.9300 6.5294
86.9400 2.3768
86.9500 4.5246
86.9600 4.3635
86.9700 2.1038
86.9800 12.5795
86.9900 7.0958
87.0000 6.9328
87.0100 6.0386
87.0200 8.0078
87.0300 11.1317
87.0400 6.2579
87.0500 6.3714
87.0600 7.5735
87.0700 4.0024
87.0800 5.2559
87.0900 7.9192
87.1000 7.4666
87.1100 2.7061
87.1200 7.5737
87.1300 6.9561
87.1400 2.5510
87.1500 5.0748
87.1600 5.7925
87.1700 8.2320
87.1800 5.4455
87.1900 4.4095
87.2000 2.0611
87.2100 5.3201
87.2200 3.4693
87.2300 7.0784
87.2400 6.4237
87.2500 11.3459
87.2600 3.7550
87.2700 9.3694
87.2800 2.2567
87.2900 14.9497
87.3000 4.0683
87.3100 5.4741
87.3200 5.9568
87.3300 8.7906
87.3400 6.1580
87.3500 5.5064
87.3600 7.9056
87.3700 6.2866
87.3800 5.9977
87.3900 6.5426
87.4000 5.7054
87.4100 8.5191
87.4200 10.1426
87.4300 5.2593
87.4400 5.6506
87.4500 3.5763
87.4600 8.2351
87.4700 6.5565
87.4800 13.6071
87.4900 3.3753
87.5000 5.5058
87.5100 8.1723
87.5200 3.2619
87.5300 3.2359
87.5400 6.2148
87.5500 3.1424
87.5600 9.4361
87.5700 4.2989
87.5800 5.9078
87.5900 8.6494
87.6000 9.2002
87.6100 15.8751
87.6200 9.2625
87.6300 5.4823
87.6400 3.7194
87.6500 10.2660
87.6600 8.3684
87.6700 8.3255
87.6800 6.9444
87.6900 12.6941
87.7000 3.2032
87.7100 13.1366
87.7200 11.2607
87.7300 7.9914
87.7400 8.1451
87.7500 9.4595
87.7600 11.1172
87.7700 6.0661
87.7800 8.4469
87.7900 10.4914
87.8000 5.9817
87.8100 6.7942
87.8200 5.5848
87.8300 5.2253
87.8400 5.7007
87.8500 10.0650
87.8600 8.9335
87.8700 4.3529
87.8800 8.3706
87.8900 7.1700
87.9000 4.6768
87.9100 6.5544
87.9200 2.9000
87.9300 5.0509
87.9400 5.0770
87.9500 2.0556
87.9600 3.8609
87.9700 12.6238
87.9800 7.7013
87.9900 5.7629
88.0000 5.7504
88.0100 3.5867
88.0200 3.4053
88.0300 6.0693
88.0400 9.2740
88.0500 3.1251
88.0600 6.6813
88.0700 5.7588
88.0800 10.1778
88.0900 8.2510
88.1000 6.7792
88.1100 4.8793
88.1200 4.7703
88.1300 4.8920
88.1400 10.9661
88.1500 10.6418
88.1600 13.0311
88.1700 5.6405
88.1800 9.9861
88.1900 2.2132
88.2000 3.5812
88.2100 6.1099
88.2200 7.3470
88.2300 6.5318
88.2400 4.3118
88.2500 4.3285
88.2600 2.1126
88.2700 2.1453
88.2800 4.6487
88.2900 6.9558
88.3000 6.9629
88.3100 7.4758
88.3200 5.1953
88.3300 1.3019
88.3400 6.3466
88.3500 7.4104
88.3600 1.2811
88.3700 8.3050
88.3800 7.1616
88.3900 4.0771
88.4000 4.1394
88.4100 3.6803
88.4200 6.6961
88.4300 4.7949
88.4400 5.2175
88.4500 4.6863
88.4600 7.3639
88.4700 4.5030
88.4800 8.7800
88.4900 2.1065
88.5000 7.4546
88.5100 3.9455
88.5200 3.7862
88.5300 3.8143
88.5400 4.8545
88.5500 5.2477
88.5600 6.2675
88.5700 6.2968
88.5800 7.2269
88.5900 6.5287
88.6000 6.0278
88.6100 5.7996
88.6200 9.2359
88.6300 7.1372
88.6400 10.9916
88.6500 2.5663
88.6600 6.8717
88.6700 0.4033
88.6800 6.0757
88.6900 6.1432
88.7000 3.6640
88.7100 4.6563
88.7200 2.1852
88.7300 3.1441
88.7400 6.1581
88.7500 4.2353
88.7600 4.1085
88.7700 4.1051
88.7800 2.1122
88.7900 7.2584
88.8000 5.2528
88.8100 4.9882
88.8200 3.5310
88.8300 2.1410
88.8400 4.0912
88.8500 2.6002
88.8600 3.9342
88.8700 2.1599
88.8800 7.1561
88.8900 8.0810
88.9000 2.9461
88.9100 3.5899
88.9200 7.7069
88.9300 3.6790
88.9400 2.4124
88.9500 10.1113
88.9600 5.0929
88.9700 1.5952
88.9800 3.3552
88.9900 3.0184
89.0000 5.9958
89.0100 10.5076
89.0200 3.9105
89.0300 6.4210
89.0400 3.9242
89.0500 4.7780
89.0600 6.9369
89.0700 7.2837
89.0800 9.1621
89.0900 10.1222
89.1000 3.6435
89.1100 7.2845
89.1200 7.1852
89.1300 5.2908
89.1400 11.1765
89.1500 7.6419
89.1600 6.0932
89.1700 6.3159
89.1800 9.4205
89.1900 6.5277
89.2000 6.3429
89.2100 15.2154
89.2200 4.4959
89.2300 6.5451
89.2400 3.1558
89.2500 7.5089
89.2600 4.7596
89.2700 3.6962
89.2800 6.6772
89.2900 5.9214
89.3000 10.0341
89.3100 5.5084
89.3200 5.5859
89.3300 6.0622
89.3400 12.9047
89.3500 5.2986
89.3600 5.8538
89.3700 3.6406
89.3800 3.1364
89.3900 2.1174
89.4000 5.0549
89.4100 2.0674
89.4200 5.2436
89.4300 5.2023
89.4400 9.1334
89.4500 3.8390
89.4600 6.1255
89.4700 3.6584
89.4800 6.6094
89.4900 7.4866
89.5000 4.5403
89.5100 3.3326
89.5200 5.0719
89.5300 1.1476
89.5400 3.1681
89.5500 3.2145
89.5600 4.9607
89.5700 5.3415
89.5800 8.3537
89.5900 6.7484
89.6000 5.0499
89.6100 6.1913
89.6200 11.2245
89.6300 6.2923
89.6400 8.1589
89.6500 6.4158
89.6600 5.3070
89.6700 3.7149
89.6800 3.0952
89.6900 4.9167
89.7000 3.7932
89.7100 6.3699
89.7200 9.8330
89.7300 3.4155
89.7400 4.0723
89.7500 1.0365
89.7600 1.9062
89.7700 7.0505
89.7800 5.8298
89.7900 3.8226
89.8000 2.3267
89.8100 5.1438
89.8200 4.5604
89.8300 7.3319
89.8400 4.9159
89.8500 6.1848
89.8600 1.8764
89.8700 2.1535
89.8800 3.5313
89.8900 5.5126
89.9000 5.7457
89.9100 8.4416
89.9200 13.5297
89.9300 10.6190
89.9400 4.6417
89.9500 15.3477
89.9600 6.3905
89.9700 10.2973
89.9800 2.6203
89.9900 4.8047
90.0000 7.0808
90.0100 6.1417
90.0200 10.6927
90.0300 8.9306
90.0400 13.8951
90.0500 10.5672
90.0600 11.2817
90.0700 5.4694
90.0800 0.5567
90.0900 4.5830
90.1000 2.8691
90.1100 3.7557
90.1200 7.4169
90.1300 6.3701
90.1400 2.4111
90.1500 4.0945
90.1600 7.3669
90.1700 11.1435
90.1800 6.0950
90.1900 5.1570
90.2000 4.9449
90.2100 6.9823
90.2200 3.9098
90.2300 5.4296
90.2400 7.2565
90.2500 3.2005
90.2600 1.1938
90.2700 1.8382
90.2800 6.2540
90.2900 2.2686
90.3000 5.2282
90.3100 3.9431
90.3200 4.8426
90.3300 2.6429
90.3400 3.1814
90.3500 2.7373
90.3600 4.6119
90.3700 3.9680
90.3800 6.1365
90.3900 3.8238
90.4000 6.2291
90.4100 9.4733
90.4200 0.5743
90.4300 3.2936
90.4400 3.6254
90.4500 4.8557
90.4600 4.0307
90.4700 5.4952
90.4800 5.3030
90.4900 8.1567
90.5000 6.7085
90.5100 5.7342
90.5200 4.9506
90.5300 4.3712
90.5400 4.3356
90.5500 4.5632
90.5600 8.1948
90.5700 8.8194
90.5800 4.6590
90.5900 2.2741
90.6000 8.7736
90.6100 5.3445
90.6200 6.3708
90.6300 4.5990
90.6400 8.8421
90.6500 4.4541
90.6600 5.3950
90.6700 4.8746
90.6800 7.2146
90.6900 3.2373
90.7000 1.8298
90.7100 10.1152
90.7200 4.3189
90.7300 4.0321
90.7400 4.2163
90.7500 4.6227
90.7600 3.6560
90.7700 6.8915
90.7800 8.6718
90.7900 6.3791
90.8000 5.4480
90.8100 8.2199
90.8200 3.9151
90.8300 0.0000
90.8400 1.9228
90.8500 4.0715
90.8600 3.5428
90.8700 6.0650
90.8800 3.7231
90.8900 3.1894
90.9000 3.0734
90.9100 2.6082
90.9200 4.3681
90.9300 5.5745
90.9400 6.4757
90.9500 4.8522
90.9600 6.0121
90.9700 5.7599
90.9800 3.6249
90.9900 3.9898
91.0000 4.9447
91.0100 5.1472
91.0200 3.8068
91.0300 9.5005
91.0400 4.0803
91.0500 1.6778
91.0600 7.4769
91.0700 2.7460
91.0800 3.8211
91.0900 3.8810
91.1000 4.2366
91.1100 10.1109
91.1200 6.0048
91.1300 4.2343
91.1400 5.8416
91.1500 3.7667
91.1600 11.0342
91.1700 7.1668
91.1800 8.4168
91.1900 9.7643
91.2000 10.5032
91.2100 10.9116
91.2200 6.5108
91.2300 5.0303
91.2400 2.6383
91.2500 2.3777
91.2600 6.5351
91.2700 8.1014
91.2800 7.1167
91.2900 4.2465
91.3000 8.4409
91.3100 6.6846
91.3200 10.4520
91.3300 3.0636
91.3400 14.5460
91.3500 5.6849
91.3600 9.2906
91.3700 2.9789
91.3800 6.7601
91.3900 5.5761
91.4000 7.7603
91.4100 4.6747
91.4200 6.7709
91.4300 12.5314
91.4400 5.4250
91.4500 5.8546
91.4600 9.2063
91.4700 13.0259
91.4800 14.3610
91.4900 9.9406
91.5000 6.1830
91.5100 9.4382
91.5200 9.6116
91.5300 8.3390
91.5400 14.0007
91.5500 2.3698
91.5600 10.9502
91.5700 6.8653
91.5800 4.8445
91.5900 6.2546
91.6000 7.0046
91.6100 7.0261
91.6200 12.1858
91.6300 7.6962
91.6400 3.5349
91.6500 11.3958
91.6600 6.8631
91.6700 5.3125
91.6800 8.0941
91.6900 8.1821
91.7000 4.6667
91.7100 4.7701
91.7200 3.2887
91.7300 8.6543
91.7400 7.4281
91.7500 6.4239
91.7600 5.9812
91.7700 7.2774
91.7800 6.4658
91.7900 5.4100
91.8000 3.2210
91.8100 8.0452
91.8200 6.1171
91.8300 4.9125
91.8400 4.7711
91.8500 7.2171
91.8600 4.1318
91.8700 6.4806
91.8800 6.0212
91.8900 5.4913
91.9000 4.8250
91.9100 6.8509
91.9200 4.8470
91.9300 8.9361
91.9400 6.1905
91.9500 7.6289
91.9600 4.5392
91.9700 4.0678
91.9800 8.9243
91.9900 6.5326
92.0000 7.4508
92.0100 5.5554
92.0200 9.2827
92.0300 4.5897
92.0400 4.8707
92.0500 3.3871
92.0600 11.9831
92.0700 6.3791
92.0800 9.0413
92.0900 3.0816
92.1000 5.4169
92.1100 3.4632
92.1200 5.7166
92.1300 6.2874
92.1400 6.1388
92.1500 4.6389
92.1600 3.2384
92.1700 5.3631
92.1800 6.3823
92.1900 7.6663
92.2000 7.2611
92.2100 4.1791
92.2200 7.8527
92.2300 5.1047
92.2400 8.6845
92.2500 10.3531
92.2600 6.4939
92.2700 6.9678
92.2800 12.3211
92.2900 6.5068
92.3000 4.2215
92.3100 7.7242
92.3200 6.0693
92.3300 6.2502
92.3400 7.3639
92.3500 8.3978
92.3600 6.1327
92.3700 4.7759
92.3800 7.8995
92.3900 12.2958
92.4000 7.0294
92.4100 6.4603
92.4200 5.8142
92.4300 5.6662
92.4400 4.1390
92.4500 6.7631
92.4600 3.8101
92.4700 10.5569
92.4800 6.6769
92.4900 7.5235
92.5000 5.4224
92.5100 8.1320
92.5200 6.8725
92.5300 4.2047
92.5400 4.5846
92.5500 7.1339
92.5600 5.6677
92.5700 5.1064
92.5800 10.8769
92.5900 7.5633
92.6000 7.1833
92.6100 4.2149
92.6200 3.9975
92.6300 3.0218
92.6400 7.2612
92.6500 10.2369
92.6600 8.5392
92.6700 6.9327
92.6800 9.4395
92.6900 5.4136
92.7000 5.2199
92.7100 4.0623
92.7200 6.4654
92.7300 6.1210
92.7400 3.5839
92.7500 3.9132
92.7600 4.1864
92.7700 4.7400
92.7800 3.3283
92.7900 7.6691
92.8000 5.7282
92.8100 4.4379
92.8200 3.5182
92.8300 1.6953
92.8400 4.2269
92.8500 4.1330
92.8600 3.9908
92.8700 7.9444
92.8800 4.1488
92.8900 5.3912
92.9000 3.4993
92.9100 4.1620
92.9200 4.3255
92.9300 4.4140
92.9400 6.1349
92.9500 3.7003
92.9600 5.5534
92.9700 5.8299
92.9800 3.2142
92.9900 11.4126
93.0000 8.2835
93.0100 9.5190
93.0200 6.3221
93.0300 8.9438
93.0400 3.5269
93.0500 5.9996
93.0600 6.4016
93.0700 7.1916
93.0800 8.3875
93.0900 9.0341
93.1000 6.1163
93.1100 7.9451
93.1200 9.4154
93.1300 4.1154
93.1400 2.7896
93.1500 4.5069
93.1600 5.4678
93.1700 2.1532
93.1800 12.5922
93.1900 9.7796
93.2000 8.8076
93.2100 3.4351
93.2200 11.0359
93.2300 9.4173
93.2400 12.9244
93.2500 6.6857
93.2600 10.9302
93.2700 12.2166
93.2800 9.4086
93.2900 10.3710
93.3000 7.4535
93.3100 5.7502
93.3200 7.0256
93.3300 4.0116
93.3400 3.1960
93.3500 8.2092
93.3600 4.2822
93.3700 6.6087
93.3800 2.2387
93.3900 4.2601
93.4000 9.2107
93.4100 11.3043
93.4200 8.3291
93.4300 4.8669
93.4400 5.1135
93.4500 10.5960
93.4600 7.1676
93.4700 4.9407
93.4800 7.8064
93.4900 5.1133
93.5000 2.1155
93.5100 5.2993
93.5200 3.8200
93.5300 7.4268
93.5400 6.9569
93.5500 7.8529
93.5600 1.8737
93.5700 0.6350
93.5800 3.2108
93.5900 4.8998
93.6000 3.3161
93.6100 9.1689
93.6200 9.2036
93.6300 9.8775
93.6400 2.7128
93.6500 7.3553
93.6600 2.2741
93.6700 5.6542
93.6800 6.3647
93.6900 5.9239
93.7000 6.2560
93.7100 9.9209
93.7200 9.3733
93.7300 6.9382
93.7400 6.4775
93.7500 7.3558
93.7600 12.3607
93.7700 4.3874
93.7800 10.1987
93.7900 7.3202
93.8000 15.2278
93.8100 8.6953
93.8200 12.3590
93.8300 8.4753
93.8400 11.6770
93.8500 8.0948
93.8600 9.1764
93.8700 10.3219
93.8800 6.6130
93.8900 5.1424
93.9000 8.9741
93.9100 8.3335
93.9200 7.3004
93.9300 7.9333
93.9400 7.9131
93.9500 6.8471
93.9600 9.3202
93.9700 11.4354
93.9800 7.2706
93.9900 4.4428
94.0000 3.0385
94.0100 8.6893
94.0200 6.7928
94.0300 7.6581
94.0400 7.2679
94.0500 4.9249
94.0600 5.4826
94.0700 12.8304
94.0800 6.2887
94.0900 5.0680
94.1000 5.8268
94.1100 4.6543
94.1200 7.9801
94.1300 5.1348
94.1400 3.4899
94.1500 8.4874
94.1600 5.9638
94.1700 8.1152
94.1800 9.2033
94.1900 8.8547
94.2000 13.4846
94.2100 15.3028
94.2200 6.7547
94.2300 6.4168
94.2400 8.6947
94.2500 6.7961
94.2600 6.4961
94.2700 7.6858
94.2800 4.5626
94.2900 9.0848
94.3000 6.5913
94.3100 7.8958
94.3200 7.6705
94.3300 7.9049
94.3400 5.0049
94.3500 3.0693
94.3600 6.0584
94.3700 4.5977
94.3800 7.3299
94.3900 2.6315
94.4000 6.0863
94.4100 3.7045
94.4200 7.7619
94.4300 4.9220
94.4400 4.7523
94.4500 6.0982
94.4600 10.2830
94.4700 8.7058
94.4800 3.3547
94.4900 5.6639
94.5000 4.6856
94.5100 8.3636
94.5200 5.2734
94.5300 6.7181
94.5400 5.2448
94.5500 4.0965
94.5600 4.8015
94.5700 7.2238
94.5800 2.4462
94.5900 4.7479
94.6000 4.2069
94.6100 10.3840
94.6200 7.8041
94.6300 10.4588
94.6400 4.4016
94.6500 12.5633
94.6600 5.6076
94.6700 5.9529
94.6800 7.7107
94.6900 8.8527
94.7000 3.5212
94.7100 21.0275
94.7200 7.2968
94.7300 15.9494
94.7400 8.1694
94.7500 10.0103
94.7600 8.1310
94.7700 9.4598
94.7800 6.3026
94.7900 6.4479
94.8000 6.8116
94.8100 5.1079
94.8200 8.2230
94.8300 7.2382
94.8400 8.8675
94.8500 7.9455
94.8600 8.6080
94.8700 4.7444
94.8800 7.7223
94.8900 5.8246
94.9000 15.5632
94.9100 11.3174
94.9200 7.8779
94.9300 9.4012
94.9400 9.3882
94.9500 6.0730
94.9600 8.3740
94.9700 9.3902
94.9800 3.8935
94.9900 9.8643
95.0000 4.9541
95.0100 7.9410
95.0200 7.3916
95.0300 11.0468
95.0400 5.3542
95.0500 8.8133
95.0600 6.2907
95.0700 5.4108
95.0800 6.2429
95.0900 5.8311
95.1000 6.2149
95.1100 7.3286
95.1200 8.6583
95.1300 8.0237
95.1400 10.2380
95.1500 13.3715
95.1600 16.8611
95.1700 9.6582
95.1800 6.3954
95.1900 4.7190
95.2000 8.0423
95.2100 8.7649
95.2200 11.0456
95.2300 8.1804
95.2400 7.2054
95.2500 4.4921
95.2600 6.1791
95.2700 3.5671
95.2800 3.4194
95.2900 5.4150
95.3000 10.2024
95.3100 10.2500
95.3200 8.2450
95.3300 4.8148
95.3400 5.2818
95.3500 6.5103
95.3600 5.2538
95.3700 6.7691
95.3800 5.9941
95.3900 3.7463
95.4000 4.7992
95.4100 4.6514
95.4200 10.8359
95.4300 4.3908
95.4400 3.4297
95.4500 7.8783
95.4600 3.2043
95.4700 6.6925
95.4800 2.2066
95.4900 4.4901
95.5000 7.2776
95.5100 9.1146
95.5200 6.8296
95.5300 5.9733
95.5400 3.4054
95.5500 4.5009
95.5600 4.9978
95.5700 7.0440
95.5800 3.3140
95.5900 4.2588
95.6000 2.6067
95.6100 6.7908
95.6200 5.4306
95.6300 3.4692
95.6400 5.0059
95.6500 5.4078
95.6600 5.6236
95.6700 6.3885
95.6800 11.5665
95.6900 9.7434
95.7000 8.4634
95.7100 7.7489
95.7200 6.5870
95.7300 6.2139
95.7400 4.7634
95.7500 5.3964
95.7600 7.5040
95.7700 12.4220
95.7800 9.4898
95.7900 12.0617
95.8000 12.5375
95.8100 7.0793
95.8200 9.2518
95.8300 5.4900
95.8400 9.1829
95.8500 8.7954
95.8600 7.4367
95.8700 11.3365
95.8800 6.4733
95.8900 7.3371
95.9000 5.0825
95.9100 8.7918
95.9200 4.8981
95.9300 5.7337
95.9400 4.1449
95.9500 7.4687
95.9600 7.9195
95.9700 4.2463
95.9800 7.7320
95.9900 9.0721
96.0000 4.6662
96.0100 4.2258
96.0200 13.3183
96.0300 4.8385
96.0400 5.9088
96.0500 6.1154
96.0600 7.8003
96.0700 5.8575
96.0800 4.8104
96.0900 5.9560
96.1000 6.3806
96.1100 7.0234
96.1200 5.7993
96.1300 8.3765
96.1400 11.1045
96.1500 8.6656
96.1600 12.5456
96.1700 5.1223
96.1800 6.6649
96.1900 8.2605
96.2000 9.0332
96.2100 3.0802
96.2200 4.3280
96.2300 8.4286
96.2400 6.3236
96.2500 4.9115
96.2600 10.2251
96.2700 11.1415
96.2800 6.5689
96.2900 9.4593
96.3000 5.7616
96.3100 8.7191
96.3200 5.1615
96.3300 9.8606
96.3400 6.7371
96.3500 12.2908
96.3600 6.2207
96.3700 5.1576
96.3800 3.9645
96.3900 8.7765
96.4000 7.4963
96.4100 9.5550
96.4200 7.8442
96.4300 8.8324
96.4400 7.7169
96.4500 8.6569
96.4600 6.0648
96.4700 7.4929
96.4800 3.1341
96.4900 6.9195
96.5000 7.1863
96.5100 5.6462
96.5200 5.6051
96.5300 8.7500
96.5400 4.4022
96.5500 12.8256
96.5600 9.5325
96.5700 5.2081
96.5800 5.6651
96.5900 7.4811
96.6000 7.3471
96.6100 6.0260
96.6200 5.4104
96.6300 5.8377
96.6400 8.7707
96.6500 7.2852
96.6600 6.5645
96.6700 8.5151
96.6800 7.8049
96.6900 7.1389
96.7000 2.7247
96.7100 12.9154
96.7200 9.8362
96.7300 7.0641
96.7400 3.5793
96.7500 7.6715
96.7600 5.1683
96.7700 5.1208
96.7800 7.1643
96.7900 6.2319
96.8000 3.1370
96.8100 7.0676
96.8200 5.4731
96.8300 2.1820
96.8400 10.0928
96.8500 5.3994
96.8600 7.4624
96.8700 5.5097
96.8800 4.6765
96.8900 5.9365
96.9000 7.2534
96.9100 6.8306
96.9200 3.0281
96.9300 7.2983
96.9400 8.1490
96.9500 2.6802
96.9600 7.6117
96.9700 1.1294
96.9800 7.6040
96.9900 3.9584
97.0000 7.0125
97.0100 3.0380
97.0200 7.1068
97.0300 3.3668
97.0400 4.3974
97.0500 8.1161
97.0600 4.1460
97.0700 4.5639
97.0800 6.9917
97.0900 6.9621
97.1000 7.3755
97.1100 7.2055
97.1200 8.7298
97.1300 9.0256
97.1400 3.9832
97.1500 2.3126
97.1600 7.4565
97.1700 3.9767
97.1800 7.4048
97.1900 5.4086
97.2000 4.2442
97.2100 7.0837
97.2200 5.6673
97.2300 5.5072
97.2400 4.7169
97.2500 1.0611
97.2600 10.5289
97.2700 2.0057
97.2800 8.1106
97.2900 5.6910
97.3000 8.0719
97.3100 6.9275
97.3200 6.9424
97.3300 6.4089
97.3400 7.4673
97.3500 4.9012
97.3600 4.2413
97.3700 8.0577
97.3800 3.9517
97.3900 4.0638
97.4000 7.2765
97.4100 8.2635
97.4200 5.8295
97.4300 11.2766
97.4400 7.8514
97.4500 6.8182
97.4600 9.2528
97.4700 5.5445
97.4800 9.0365
97.4900 10.4277
97.5000 7.2103
97.5100 12.1767
97.5200 11.3653
97.5300 9.7911
97.5400 4.8997
97.5500 7.8366
97.5600 11.2463
97.5700 4.9999
97.5800 10.1107
97.5900 2.4050
97.6000 13.6312
97.6100 8.0880
97.6200 10.9615
97.6300 3.6796
97.6400 6.2726
97.6500 7.9530
97.6600 9.0744
97.6700 1.7510
97.6800 7.2204
97.6900 5.4857
97.7000 7.9129
97.7100 8.1964
97.7200 9.2176
97.7300 5.4660
97.7400 6.8942
97.7500 10.9889
97.7600 3.3228
97.7700 7.4502
97.7800 5.8028
97.7900 5.2461
97.8000 7.1126
97.8100 6.5669
97.8200 6.5621
97.8300 5.6830
97.8400 4.1325
97.8500 6.9357
97.8600 7.4000
97.8700 3.8709
97.8800 2.7407
97.8900 5.2252
97.9000 8.6649
97.9100 8.7907
97.9200 9.5840
97.9300 3.9438
97.9400 7.1319
97.9500 11.3283
97.9600 6.3545
97.9700 4.7390
97.9800 4.7846
97.9900 4.6089
98.0000 8.2580
98.0100 7.1868
98.0200 5.0362
98.0300 3.5332
98.0400 6.7003
98.0500 7.7037
98.0600 7.4934
98.0700 2.4930
98.0800 6.1806
98.0900 6.4076
98.1000 7.5093
98.1100 8.2706
98.1200 5.4926
98.1300 4.7509
98.1400 5.3611
98.1500 4.1961
98.1600 15.4381
98.1700 7.9306
98.1800 7.3857
98.1900 4.4153
98.2000 6.8181
98.2100 12.1778
98.2200 8.4484
98.2300 7.6168
98.2400 10.2138
98.2500 12.8073
98.2600 5.9212
98.2700 9.9618
98.2800 8.8172
98.2900 14.3170
98.3000 12.0077
98.3100 7.4151
98.3200 10.7329
98.3300 11.0251
98.3400 13.7696
98.3500 5.3596
98.3600 5.1675
98.3700 7.3591
98.3800 9.4282
98.3900 14.7847
98.4000 14.4866
98.4100 7.5102
98.4200 11.0700
98.4300 17.2591
98.4400 12.3159
98.4500 11.6720
98.4600 11.7845
98.4700 9.3016
98.4800 10.1805
98.4900 14.6130
98.5000 10.0878
98.5100 16.3926
98.5200 11.6879
98.5300 8.9599
98.5400 20.5617
98.5500 14.2325
98.5600 15.5996
98.5700 9.8330
98.5800 15.8301
98.5900 12.2321
98.6000 16.8738
98.6100 21.0350
98.6200 14.3623
98.6300 18.9692
98.6400 27.5277
98.6500 15.8253
98.6600 18.3449
98.6700 24.2981
98.6800 17.7260
98.6900 26.8829
98.7000 18.4385
98.7100 14.2870
98.7200 16.5333
98.7300 16.7376
98.7400 13.7491
98.7500 15.9670
98.7600 17.2011
98.7700 20.2065
98.7800 14.3886
98.7900 20.1253
98.8000 17.8491
98.8100 12.0751
98.8200 15.7614
98.8300 13.1089
98.8400 7.8686
98.8500 14.5139
98.8600 12.5261
98.8700 9.9880
98.8800 11.6012
98.8900 6.2771
98.9000 9.9152
98.9100 12.0660
98.9200 9.3750
98.9300 11.9639
98.9400 11.0710
98.9500 9.5378
98.9600 11.8754
98.9700 8.8780
98.9800 12.0713
98.9900 6.4727
99.0000 7.9545
99.0100 4.5438
99.0200 6.5232
99.0300 11.4939
99.0400 5.2847
99.0500 6.4089
99.0600 3.2083
99.0700 8.9468
99.0800 7.1200
99.0900 3.8414
99.1000 4.9120
99.1100 10.1237
99.1200 7.7029
99.1300 6.3261
99.1400 10.3878
99.1500 4.7873
99.1600 5.2777
99.1700 13.4096
99.1800 7.4658
99.1900 9.3965
99.2000 12.1690
99.2100 10.7375
99.2200 9.7069
99.2300 8.1164
99.2400 9.7548
99.2500 4.0617
99.2600 2.3588
99.2700 5.6529
99.2800 5.0147
99.2900 8.9536
99.3000 5.5091
99.3100 8.4770
99.3200 4.4242
99.3300 4.8894
99.3400 11.8338
99.3500 6.7382
99.3600 5.6644
99.3700 3.3938
99.3800 7.0005
99.3900 7.2059
99.4000 6.7720
99.4100 10.5469
99.4200 7.9025
99.4300 6.7362
99.4400 8.1829
99.4500 2.7561
99.4600 3.0240
99.4700 4.5454
99.4800 5.0895
99.4900 3.4596
99.5000 6.0438
99.5100 6.7059
99.5200 5.9030
99.5300 4.6744
99.5400 10.3098
99.5500 9.1165
99.5600 6.7734
99.5700 6.2270
99.5800 2.1643
99.5900 5.8606
99.6000 1.4006
99.6100 7.1151
99.6200 8.1090
99.6300 8.8562
99.6400 9.9117
99.6500 5.7454
99.6600 3.3017
99.6700 7.3973
99.6800 4.6156
99.6900 8.5472
99.7000 10.4776
99.7100 9.0738
99.7200 6.2749
99.7300 5.6766
99.7400 6.0686
99.7500 7.1231
99.7600 11.5638
99.7700 7.8859
99.7800 8.3690
99.7900 7.3979
99.8000 5.3496
99.8100 5.8726
99.8200 3.1114
99.8300 8.1692
99.8400 7.6806
99.8500 6.8461
99.8600 8.7763
99.8700 7.4051
99.8800 8.5399
99.8900 10.8499
99.9000 7.3842
99.9100 6.2040
99.9200 8.6053
99.9300 10.8647
99.9400 5.0703
99.9500 4.2712
99.9600 9.0332
99.9700 9.6605
99.9800 6.9751
99.9900 8.8153
100.0000 5.3629
100.0100 2.2497
100.0200 9.5513
100.0300 7.8432
100.0400 4.6415
100.0500 7.3122
100.0600 4.8686
100.0700 5.6580
100.0800 8.6388
100.0900 5.8309
100.1000 5.5779
100.1100 2.9520
100.1200 9.2758
100.1300 5.1789
100.1400 8.1686
100.1500 3.1463
100.1600 5.1682
100.1700 8.8040
100.1800 4.9114
100.1900 7.3185
100.2000 6.7133
100.2100 4.0410
100.2200 4.0555
100.2300 4.9107
100.2400 5.1544
100.2500 3.3892
100.2600 4.5605
100.2700 2.5975
100.2800 3.4212
100.2900 8.6040
100.3000 6.0497
100.3100 7.4998
100.3200 3.0198
100.3300 9.1751
100.3400 6.4484
100.3500 8.0835
100.3600 6.8456
100.3700 7.6452
100.3800 4.9535
100.3900 4.3850
100.4000 8.9698
100.4100 8.4806
100.4200 7.0943
100.4300 6.1069
100.4400 9.4474
100.4500 4.8128
100.4600 2.9983
100.4700 7.9944
100.4800 6.3363
100.4900 3.6527
100.5000 5.5883
100.5100 6.2705
100.5200 8.6599
100.5300 5.1874
100.5400 2.3382
100.5500 3.2545
100.5600 3.4874
100.5700 5.5831
100.5800 2.1637
100.5900 7.9886
100.6000 6.2818
100.6100 6.1313
100.6200 4.5491
100.6300 0.4835
100.6400 6.8509
100.6500 7.1908
100.6600 6.3349
100.6700 8.0385
100.6800 9.0043
100.6900 5.7310
100.7000 9.7606
100.7100 5.9839
100.7200 6.4889
100.7300 7.1698
100.7400 6.7408
100.7500 6.1177
100.7600 7.2141
100.7700 7.0126
100.7800 8.0414
100.7900 3.9838
100.8000 3.1965
100.8100 5.6707
100.8200 5.3076
100.8300 9.3467
100.8400 4.1611
100.8500 8.8873
100.8600 4.3903
100.8700 6.1164
100.8800 9.4538
100.8900 5.6140
100.9000 6.9246
100.9100 5.1188
100.9200 9.1820
100.9300 4.8798
100.9400 7.6505
100.9500 2.4073
100.9600 4.1709
100.9700 4.6802
100.9800 6.4934
100.9900 8.0998
101.0000 6.4696
101.0100 7.6485
101.0200 6.7573
101.0300 6.0838
101.0400 5.5978
101.0500 4.8881
101.0600 3.1189
101.0700 6.4618
101.0800 5.0057
101.0900 7.4689
101.1000 5.6457
101.1100 7.7841
101.1200 4.0286
101.1300 7.5917
101.1400 3.1961
101.1500 6.0353
101.1600 6.7006
101.1700 5.9459
101.1800 5.4800
101.1900 6.3870
101.2000 8.1679
101.2100 6.8187
101.2200 6.6729
101.2300 3.0254
101.2400 2.4244
101.2500 4.1811
101.2600 6.7575
101.2700 6.8284
101.2800 6.2644
101.2900 5.3189
101.3000 3.0043
101.3100 2.6843
101.3200 4.7528
101.3300 5.3311
101.3400 5.7393
101.3500 6.3863
101.3600 8.0933
101.3700 12.1017
101.3800 6.5981
101.3900 2.2654
101.4000 7.5112
101.4100 6.5153
101.4200 6.2877
101.4300 6.9356
101.4400 5.1761
101.4500 5.5884
101.4600 5.0530
101.4700 9.4376
101.4800 9.0155
101.4900 10.1820
101.5000 8.2307
101.5100 8.5800
101.5200 7.9075
101.5300 5.8031
101.5400 10.1985
101.5500 1.1099
101.5600 6.6404
101.5700 8.7536
101.5800 4.4087
101.5900 7.0302
101.6000 8.6376
101.6100 4.0727
101.6200 6.1394
101.6300 6.0761
101.6400 4.2570
101.6500 6.5740
101.6600 4.6073
101.6700 5.4081
101.6800 3.4802
101.6900 6.7097
101.7000 4.4687
101.7100 3.2794
101.7200 7.5494
101.7300 4.4450
101.7400 3.9491
101.7500 5.2973
101.7600 2.7747
101.7700 6.1987
101.7800 7.0503
101.7900 7.0058
101.8000 3.5231
101.8100 4.9225
101.8200 9.0829
101.8300 1.1018
101.8400 3.5190
101.8500 6.6235
101.8600 5.7991
101.8700 5.5132
101.8800 3.8349
101.8900 4.9682
101.9000 7.3048
101.9100 6.3477
101.9200 3.3525
101.9300 10.0106
101.9400 7.6346
101.9500 6.9226
101.9600 8.6811
101.9700 11.6388
101.9800 5.3506
101.9900 8.2693
102.0000 2.7064
102.0100 5.0605
102.0200 11.0758
102.0300 0.5228
102.0400 10.9163
102.0500 4.4325
102.0600 3.4758
102.0700 6.9753
102.0800 5.2811
102.0900 5.3183
102.1000 7.2181
102.1100 8.0800
102.1200 4.3602
102.1300 2.2237
102.1400 9.1606
102.1500 9.5496
102.1600 8.2053
102.1700 6.3827
102.1800 8.4489
102.1900 8.1538
102.2000 6.7685
102.2100 9.2349
102.2200 7.2028
102.2300 4.8761
102.2400 9.4096
102.2500 1.8763
102.2600 4.5400
102.2700 5.4353
102.2800 8.9826
102.2900 3.6414
102.3000 3.5422
102.3100 5.6337
102.3200 10.4803
102.3300 13.5277
102.3400 8.6314
102.3500 9.2923
102.3600 4.0317
102.3700 9.6044
102.3800 3.1547
102.3900 8.1654
102.4000 8.0567
102.4100 5.3114
102.4200 8.4135
102.4300 7.7837
102.4400 10.6799
102.4500 6.5973
102.4600 6.5224
102.4700 12.8667
102.4800 6.4746
102.4900 9.9049
102.5000 1.9864
102.5100 2.5956
102.5200 3.8236
102.5300 5.1723
102.5400 5.7602
102.5500 8.4586
102.5600 4.1040
102.5700 9.8314
102.5800 7.6664
102.5900 9.9246
102.6000 6.0977
102.6100 5.5899
102.6200 9.6181
102.6300 5.7168
102.6400 7.3723
102.6500 4.5218
102.6600 6.0206
102.6700 5.9784
102.6800 5.6357
102.6900 8.7075
102.7000 9.3073
102.7100 6.6717
102.7200 4.0644
102.7300 2.4026
102.7400 2.4965
102.7500 4.2199
102.7600 3.2286
102.7700 5.5582
102.7800 7.6896
102.7900 3.0082
102.8000 6.5828
102.8100 5.0062
102.8200 6.8915
102.8300 4.8272
102.8400 6.3363
102.8500 6.7362
102.8600 5.3692
102.8700 8.1706
102.8800 4.1589
102.8900 3.5809
102.9000 7.7520
102.9100 8.9094
102.9200 5.7473
102.9300 5.5017
102.9400 8.8391
102.9500 4.7331
102.9600 12.1141
102.9700 4.6928
102.9800 7.3097
102.9900 6.3637
103.0000 6.8791
103.0100 7.2943
103.0200 10.6079
103.0300 7.8278
103.0400 7.1447
103.0500 7.4744
103.0600 6.0820
103.0700 8.0803
103.0800 8.2431
103.0900 10.1705
103.1000 2.5193
103.1100 6.7545
103.1200 4.7784
103.1300 2.9989
103.1400 6.1921
103.1500 6.4586
103.1600 4.0922
103.1700 4.0492
103.1800 5.2552
103.1900 8.2582
103.2000 8.0702
103.2100 2.7890
103.2200 8.1180
103.2300 5.8331
103.2400 6.7569
103.2500 9.6180
103.2600 10.6256
103.2700 9.1135
103.2800 5.9046
103.2900 7.4632
103.3000 9.0301
103.3100 7.4735
103.3200 6.0894
103.3300 4.8346
103.3400 4.0332
103.3500 8.8219
103.3600 5.4478
103.3700 4.0146
103.3800 8.7823
103.3900 4.4136
103.4000 1.1398
103.4100 5.3852
103.4200 3.6023
103.4300 5.5407
103.4400 2.8743
103.4500 6.1508
103.4600 3.1325
103.4700 6.4898
103.4800 5.3315
103.4900 10.3945
103.5000 4.5110
103.5100 4.5876
103.5200 7.0822
103.5300 6.3156
103.5400 4.1622
103.5500 3.1899
103.5600 5.3970
103.5700 8.0999
103.5800 7.6065
103.5900 4.7679
103.6000 5.0642
103.6100 3.2214
103.6200 6.1549
103.6300 3.4666
103.6400 5.1082
103.6500 5.4081
103.6600 7.6401
103.6700 4.1660
103.6800 6.7641
103.6900 10.4793
103.7000 4.9912
103.7100 7.7020
103.7200 6.0906
103.7300 10.2242
103.7400 6.3979
103.7500 17.2938
103.7600 6.4490
103.7700 9.0210
103.7800 4.2256
103.7900 7.6824
103.8000 8.2877
103.8100 9.2333
103.8200 11.4309
103.8300 4.7330
103.8400 5.9466
103.8500 9.7654
103.8600 8.7359
103.8700 4.2206
103.8800 6.2211
103.8900 8.1651
103.9000 6.0295
103.9100 6.0692
103.9200 2.3308
103.9300 8.0842
103.9400 8.1197
103.9500 3.9336
103.9600 5.4164
103.9700 7.3386
103.9800 2.2456
103.9900 5.3070
104.0000 7.9017
104.0100 7.5067
104.0200 4.1145
104.0300 11.0806
104.0400 6.5528
104.0500 4.6445
104.0600 4.3654
104.0700 7.9036
104.0800 2.8092
104.0900 10.7957
104.1000 6.8114
104.1100 5.7397
104.1200 5.0254
104.1300 5.4311
104.1400 4.0995
104.1500 4.1907
104.1600 3.9977
104.1700 5.5357
104.1800 5.8739
104.1900 13.0014
104.2000 5.2017
104.2100 9.2463
104.2200 4.4302
104.2300 6.2288
104.2400 2.2591
104.2500 7.1859
104.2600 9.6855
104.2700 9.6757
104.2800 8.4196
104.2900 7.4827
104.3000 7.3107
104.3100 3.6792
104.3200 3.9929
104.3300 8.2424
104.3400 6.0006
104.3500 2.0700
104.3600 8.1008
104.3700 4.2332
104.3800 6.4276
104.3900 9.3484
104.4000 2.8424
104.4100 6.3254
104.4200 8.9735
104.4300 8.6209
104.4400 5.3957
104.4500 5.3941
104.4600 3.3429
104.4700 10.1489
104.4800 6.6205
104.4900 4.3857
104.5000 4.4848
104.5100 3.7922
104.5200 3.5469
104.5300 7.8275
104.5400 5.4381
104.5500 4.1477
104.5600 3.0996
104.5700 1.2803
104.5800 8.0446
104.5900 7.5916
104.6000 6.0629
104.6100 6.3987
104.6200 6.8116
104.6300 6.4055
104.6400 7.1325
104.6500 2.5084
104.6600 7.6577
104.6700 4.4672
104.6800 5.0677
104.6900 8.9893
104.7000 6.7631
104.7100 8.0879
104.7200 8.9381
104.7300 8.1116
104.7400 6.5033
104.7500 3.0725
104.7600 3.6463
104.7700 5.6924
104.7800 5.9059
104.7900 12.1320
104.8000 5.6809
104.8100 3.0348
104.8200 5.1801
104.8300 4.5670
104.8400 5.2518
104.8500 5.6655
104.8600 2.5687
104.8700 2.8122
104.8800 7.1438
104.8900 5.5495
104.9000 8.3949
104.9100 8.5972
104.9200 8.2123
104.9300 7.7835
104.9400 8.1278
104.9500 7.9163
104.9600 5.6735
104.9700 8.9503
104.9800 6.5098
104.9900 3.1901
105.0000 5.0912
105.0100 4.2708
105.0200 5.7877
105.0300 7.1743
105.0400 7.3224
105.0500 9.3976
105.0600 4.0267
105.0700 8.3879
105.0800 5.5909
105.0900 6.9853
105.1000 6.7835
105.1100 4.8813
105.1200 2.9763
105.1300 4.5020
105.1400 4.9461
105.1500 5.2335
105.1600 4.3675
105.1700 4.6061
105.1800 2.9808
105.1900 6.1158
105.2000 5.1015
105.2100 6.1102
105.2200 4.0562
105.2300 2.9027
105.2400 5.5546
105.2500 5.0808
105.2600 5.7740
105.2700 2.7229
105.2800 5.8748
105.2900 5.0787
105.3000 5.5502
105.3100 2.2075
105.3200 6.6721
105.3300 7.1616
105.3400 4.9837
105.3500 10.5186
105.3600 4.2099
105.3700 9.8611
105.3800 6.0655
105.3900 14.3666
105.4000 7.6583
105.4100 10.2266
105.4200 6.3678
105.4300 2.5827
105.4400 6.6072
105.4500 7.6291
105.4600 3.2316
105.4700 4.7527
105.4800 6.6901
105.4900 4.8252
105.5000 3.0490
105.5100 9.5765
105.5200 3.4588
105.5300 4.9096
105.5400 3.6884
105.5500 7.9313
105.5600 5.7982
105.5700 4.1459
105.5800 7.9968
105.5900 8.5165
105.6000 10.5161
105.6100 4.8290
105.6200 6.1143
105.6300 8.1537
105.6400 4.2637
105.6500 6.5251
105.6600 6.8231
105.6700 7.4954
105.6800 13.9345
105.6900 15.0293
105.7000 9.9851
105.7100 9.0702
105.7200 10.4891
105.7300 3.3171
105.7400 10.3822
105.7500 5.5506
105.7600 13.0236
105.7700 7.2018
105.7800 5.7296
105.7900 7.3838
105.8000 11.2355
105.8100 9.6768
105.8200 9.4260
105.8300 9.8972
105.8400 8.3311
105.8500 4.9446
105.8600 11.4400
105.8700 4.4631
105.8800 7.2905
105.8900 7.6077
105.9000 4.5698
105.9100 7.2343
105.9200 4.3555
105.9300 12.0752
105.9400 10.2446
105.9500 5.1535
105.9600 5.8254
105.9700 10.4284
105.9800 9.9921
105.9900 7.4400
106.0000 10.5938
106.0100 9.5988
106.0200 18.3945
106.0300 9.2351
106.0400 20.0694
106.0500 6.5548
106.0600 10.0932
106.0700 5.3578
106.0800 12.2115
106.0900 3.8586
106.1000 5.1473
106.1100 6.5724
106.1200 6.0326
106.1300 11.5209
106.1400 2.6065
106.1500 14.8612
106.1600 4.6083
106.1700 11.5070
106.1800 6.9885
106.1900 10.1629
106.2000 4.4952
106.2100 4.2034
106.2200 5.7831
106.2300 8.1052
106.2400 6.2377
106.2500 7.2433
106.2600 11.1656
106.2700 8.2168
106.2800 6.3617
106.2900 5.7626
106.3000 4.0896
106.3100 1.8945
106.3200 8.6663
106.3300 6.2234
106.3400 6.4322
106.3500 4.8113
106.3600 8.9779
106.3700 3.3511
106.3800 6.8159
106.3900 1.3961
106.4000 4.4906
106.4100 5.7102
106.4200 5.8157
106.4300 3.4326
106.4400 2.7379
106.4500 3.2877
106.4600 5.8667
106.4700 3.2030
106.4800 5.2696
106.4900 5.6130
106.5000 9.1286
106.5100 8.7894
106.5200 9.0580
106.5300 7.8978
106.5400 4.8504
106.5500 8.3529
106.5600 8.6464
106.5700 9.3187
106.5800 14.8291
106.5900 6.2493
106.6000 11.8701
106.6100 13.5063
106.6200 10.8445
106.6300 6.1316
106.6400 8.1500
106.6500 11.5520
106.6600 5.5826
106.6700 7.3075
106.6800 6.1609
106.6900 8.0362
106.7000 8.8405
106.7100 7.4413
106.7200 3.6007
106.7300 3.7453
106.7400 8.3530
106.7500 8.1245
106.7600 2.1708
106.7700 9.8530
106.7800 1.0959
106.7900 4.2098
106.8000 6.2816
106.8100 12.8338
106.8200 1.3999
106.8300 3.3743
106.8400 3.7003
106.8500 5.7861
106.8600 4.9603
106.8700 7.7712
106.8800 9.5566
106.8900 9.9222
106.9000 9.2535
106.9100 4.8150
106.9200 6.0104
106.9300 3.1148
106.9400 8.3506
106.9500 9.4588
106.9600 3.7406
106.9700 7.0902
106.9800 8.5689
106.9900 5.9219
107.0000 10.7705
107.0100 10.2181
107.0200 13.8118
107.0300 5.3832
107.0400 4.4038
107.0500 7.6000
107.0600 7.6071
107.0700 6.0798
107.0800 2.2809
107.0900 7.0835
107.1000 5.2818
107.1100 6.2199
107.1200 6.0900
107.1300 6.1781
107.1400 4.4527
107.1500 5.5021
107.1600 5.5696
107.1700 5.7002
107.1800 8.8290
107.1900 9.5207
107.2000 4.9253
107.2100 5.9151
107.2200 4.3774
107.2300 4.8423
107.2400 6.3922
107.2500 7.6048
107.2600 7.0022
107.2700 4.9742
107.2800 3.1709
107.2900 7.7900
107.3000 4.2813
107.3100 2.3926
107.3200 3.9918
107.3300 13.2010
107.3400 4.0703
107.3500 3.8831
107.3600 4.7962
107.3700 13.4384
107.3800 7.4562
107.3900 12.0575
107.4000 5.9002
107.4100 4.8730
107.4200 10.2421
107.4300 2.3821
107.4400 10.5116
107.4500 8.2003
107.4600 4.4661
107.4700 5.3866
107.4800 3.0453
107.4900 9.5659
107.5000 5.6314
107.5100 6.3484
107.5200 4.3576
107.5300 6.1727
107.5400 5.3991
107.5500 10.4235
107.5600 7.8190
107.5700 6.1023
107.5800 6.2324
107.5900 7.7158
107.6000 5.8356
107.6100 8.2594
107.6200 6.8295
107.6300 3.0863
107.6400 8.9302
107.6500 3.6885
107.6600 5.0859
107.6700 5.1947
107.6800 7.1551
107.6900 6.1132
107.7000 9.4216
107.7100 9.5143
107.7200 5.3565
107.7300 8.3886
107.7400 5.7250
107.7500 4.1479
107.7600 4.4994
107.7700 7.4229
107.7800 6.2350
107.7900 9.8553
107.8000 5.9703
107.8100 6.8246
107.8200 8.1250
107.8300 6.5016
107.8400 6.4375
107.8500 7.2621
107.8600 5.1063
107.8700 4.1093
107.8800 3.1501
107.8900 4.3435
107.9000 3.9591
107.9100 5.7415
107.9200 2.8996
107.9300 6.9780
107.9400 6.9447
107.9500 3.0702
107.9600 5.3011
107.9700 2.1845
107.9800 1.9234
107.9900 4.3366
108.0000 8.3840
108.0100 5.6465
108.0200 5.1744
108.0300 11.2154
108.0400 1.4718
108.0500 2.1088
108.0600 1.2008
108.0700 2.9916
108.0800 4.2005
108.0900 9.1251
108.1000 8.0415
108.1100 6.6833
108.1200 4.1942
108.1300 7.5108
108.1400 6.3534
108.1500 6.8910
108.1600 6.0079
108.1700 7.2233
108.1800 7.4455
108.1900 5.9633
108.2000 5.2078
108.2100 2.4245
108.2200 10.0185
108.2300 7.1666
108.2400 6.6396
108.2500 7.4039
108.2600 9.2697
108.2700 3.8557
108.2800 9.1748
108.2900 4.3470
108.3000 6.0438
108.3100 3.2899
108.3200 9.3092
108.3300 6.1703
108.3400 5.4851
108.3500 6.9015
108.3600 4.7559
108.3700 5.1214
108.3800 3.3281
108.3900 5.1662
108.4000 6.4648
108.4100 7.3098
108.4200 4.1956
108.4300 4.2619
108.4400 6.1980
108.4500 5.7840
108.4600 6.0931
108.4700 3.5949
108.4800 9.2302
108.4900 6.4297
108.5000 9.8225
108.5100 2.7694
108.5200 8.2355
108.5300 7.4090
108.5400 3.1682
108.5500 3.1820
108.5600 2.7129
108.5700 7.1847
108.5800 6.7767
108.5900 5.9309
108.6000 3.0057
108.6100 1.8434
108.6200 4.7911
108.6300 3.5731
108.6400 6.6599
108.6500 5.9190
108.6600 6.2353
108.6700 4.7859
108.6800 2.3689
108.6900 3.0043
108.7000 2.7540
108.7100 3.3616
108.7200 5.3405
108.7300 3.9371
108.7400 6.2931
108.7500 1.7438
108.7600 5.4992
108.7700 5.9724
108.7800 10.8865
108.7900 6.5269
108.8000 9.2583
108.8100 8.4265
108.8200 7.7192
108.8300 3.4976
108.8400 5.3825
108.8500 7.3715
108.8600 8.3062
108.8700 8.4165
108.8800 5.4806
108.8900 6.9069
108.9000 4.2537
108.9100 5.9193
108.9200 2.4417
108.9300 8.3001
108.9400 4.2864
108.9500 8.8120
108.9600 3.8852
108.9700 5.8842
108.9800 6.4287
108.9900 4.7490
109.0000 1.7088
109.0100 5.6597
109.0200 6.7292
109.0300 5.3733
109.0400 2.2206
109.0500 3.8565
109.0600 3.1014
109.0700 6.8932
109.0800 4.3508
109.0900 3.1441
109.1000 5.6972
109.1100 2.2772
109.1200 6.9555
109.1300 2.6143
109.1400 4.8622
109.1500 9.9935
109.1600 7.0028
109.1700 12.1906
109.1800 7.7771
109.1900 4.4645
109.2000 7.2618
109.2100 6.3008
109.2200 12.0811
109.2300 3.6014
109.2400 9.8252
109.2500 5.9221
109.2600 4.5877
109.2700 4.4173
109.2800 12.4961
109.2900 7.6551
109.3000 7.8417
109.3100 8.7011
109.3200 8.1964
109.3300 7.4350
109.3400 4.0513
109.3500 4.2069
109.3600 5.0945
109.3700 3.5714
109.3800 6.6503
109.3900 6.9356
109.4000 7.1239
109.4100 10.6806
109.4200 4.1171
109.4300 5.7988
109.4400 8.6795
109.4500 4.5030
109.4600 6.4586
109.4700 9.7392
109.4800 5.1581
109.4900 6.7195
109.5000 6.0821
109.5100 4.2377
109.5200 2.4604
109.5300 4.9412
109.5400 4.2495
109.5500 4.0926
109.5600 5.8395
109.5700 7.0247
109.5800 8.0987
109.5900 10.0521
109.6000 1.5890
109.6100 8.5546
109.6200 0.4044
109.6300 6.8016
109.6400 5.0149
109.6500 8.3000
109.6600 3.1375
109.6700 4.6135
109.6800 6.7600
109.6900 8.4901
109.7000 7.2190
109.7100 5.2808
109.7200 9.2159
109.7300 6.8432
109.7400 6.9634
109.7500 5.6503
109.7600 3.4157
109.7700 2.3884
109.7800 6.2415
109.7900 2.1361
109.8000 9.1392
109.8100 4.2392
109.8200 4.3668
109.8300 6.1489
109.8400 8.7444
109.8500 2.5687
109.8600 5.1229
109.8700 9.9469
109.8800 9.1651
109.8900 4.4258
109.9000 3.6165
109.9100 7.0343
109.9200 5.6586
109.9300 2.8645
109.9400 5.2858
109.9500 3.7352
109.9600 8.7044
109.9700 6.4080
109.9800 7.2276
109.9900 12.2941
110.0000 6.1985
110.0100 6.1897
110.0200 3.7744
110.0300 9.1569
110.0400 6.5636
110.0500 4.6973
110.0600 4.2740
110.0700 6.1324
110.0800 7.9959
110.0900 5.1706
110.1000 2.9741
110.1100 2.3566
110.1200 3.2348
110.1300 6.2858
110.1400 6.2376
110.1500 8.1164
110.1600 5.4344
110.1700 2.5122
110.1800 2.0263
110.1900 1.1656
110.2000 5.5656
110.2100 5.6283
110.2200 7.4306
110.2300 6.7630
110.2400 6.1140
110.2500 6.7512
110.2600 2.6308
110.2700 6.6547
110.2800 3.1617
110.2900 4.9874
110.3000 3.2294
110.3100 4.8464
110.3200 7.1166
110.3300 2.6346
110.3400 9.5965
110.3500 1.9380
110.3600 4.1754
110.3700 2.9352
110.3800 7.2015
110.3900 5.2916
110.4000 3.0587
110.4100 2.0529
110.4200 4.5647
110.4300 5.2877
110.4400 3.9156
110.4500 7.1189
110.4600 7.1936
110.4700 3.9974
110.4800 8.3320
110.4900 10.9123
110.5000 8.1863
110.5100 8.9924
110.5200 5.3703
110.5300 4.9858
110.5400 8.3898
110.5500 7.9648
110.5600 3.3738
110.5700 7.5954
110.5800 6.2361
110.5900 6.0237
110.6000 8.3203
110.6100 4.2791
110.6200 9.4337
110.6300 8.7484
110.6400 6.4299
110.6500 4.7178
110.6600 7.9347
110.6700 6.3081
110.6800 7.2376
110.6900 6.8318
110.7000 3.7977
110.7100 8.0341
110.7200 5.4795
110.7300 11.0990
110.7400 4.8347
110.7500 11.5833
110.7600 4.7414
110.7700 10.5141
110.7800 6.9229
110.7900 5.9804
110.8000 7.1266
110.8100 9.1370
110.8200 6.4684
110.8300 8.2016
110.8400 11.2711
110.8500 6.8600
110.8600 5.9229
110.8700 9.3147
110.8800 7.5597
110.8900 6.2774
110.9000 3.7684
110.9100 7.0328
110.9200 2.1542
110.9300 11.8842
110.9400 5.9811
110.9500 7.7373
110.9600 11.1652
110.9700 14.5903
110.9800 5.0181
110.9900 14.2359
111.0000 9.6619
111.0100 10.0466
111.0200 6.1378
111.0300 8.2889
111.0400 8.3575
111.0500 9.9057
111.0600 10.0438
111.0700 4.9915
111.0800 6.2012
111.0900 6.3836
111.1000 7.7272
111.1100 6.8927
111.1200 5.6568
111.1300 4.3482
111.1400 4.3045
111.1500 4.3641
111.1600 4.7410
111.1700 5.3941
111.1800 5.4118
111.1900 12.9045
111.2000 5.8196
111.2100 5.0143
111.2200 5.1027
111.2300 4.5174
111.2400 7.3683
111.2500 7.9088
111.2600 6.4563
111.2700 4.3206
111.2800 3.7300
111.2900 5.9511
111.3000 5.6002
111.3100 4.1954
111.3200 10.9840
111.3300 4.3057
111.3400 10.2691
111.3500 3.5066
111.3600 3.8408
111.3700 3.0881
111.3800 7.8748
111.3900 3.4538
111.4000 9.1818
111.4100 3.1272
111.4200 5.2133
111.4300 4.1005
111.4400 2.3135
111.4500 4.9906
111.4600 4.3044
111.4700 4.9559
111.4800 5.9438
111.4900 3.9238
111.5000 5.0862
111.5100 1.6971
111.5200 3.4060
111.5300 6.7969
111.5400 6.7685
111.5500 10.9556
111.5600 6.4365
111.5700 7.3253
111.5800 6.0085
111.5900 11.1437
111.6000 6.4239
111.6100 4.8576
111.6200 6.6181
111.6300 6.5568
111.6400 7.3234
111.6500 5.3072
111.6600 4.0846
111.6700 7.0170
111.6800 12.9841
111.6900 6.7637
111.7000 5.2794
111.7100 7.7630
111.7200 6.3676
111.7300 6.3239
111.7400 6.9752
111.7500 6.1057
111.7600 7.3111
111.7700 7.2480
111.7800 10.0583
111.7900 2.4505
111.8000 6.2774
111.8100 7.5316
111.8200 8.5221
111.8300 13.8037
111.8400 9.7959
111.8500 7.2246
111.8600 9.5405
111.8700 3.0231
111.8800 7.2112
111.8900 6.4187
111.9000 8.4897
111.9100 6.0632
111.9200 4.5632
111.9300 3.7015
111.9400 3.9319
111.9500 7.8898
111.9600 8.1792
111.9700 6.3735
111.9800 6.6632
111.9900 6.4019
112.0000 8.7936
112.0100 8.6098
112.0200 8.1693
112.0300 5.7786
112.0400 2.6427
112.0500 4.9474
112.0600 3.2257
112.0700 8.8910
112.0800 2.6705
112.0900 5.4684
112.1000 8.1360
112.1100 10.5517
112.1200 3.8362
112.1300 8.8822
112.1400 4.2291
112.1500 5.0926
112.1600 4.9306
112.1700 3.6960
112.1800 7.2027
112.1900 4.7236
112.2000 9.3992
112.2100 8.4459
112.2200 3.0471
112.2300 4.4078
112.2400 3.5238
112.2500 2.2419
112.2600 5.2074
112.2700 7.0882
112.2800 6.5644
112.2900 8.1248
112.3000 10.6070
112.3100 3.2847
112.3200 4.7065
112.3300 2.3371
112.3400 6.2218
112.3500 8.4814
112.3600 4.7170
112.3700 4.5352
112.3800 7.8102
112.3900 5.4885
112.4000 10.5255
112.4100 3.1692
112.4200 9.4328
112.4300 3.8927
112.4400 7.4945
112.4500 6.2822
112.4600 4.2710
112.4700 6.0309
112.4800 8.6103
112.4900 9.6743
112.5000 7.9513
112.5100 5.5308
112.5200 3.2188
112.5300 6.4269
112.5400 4.7704
112.5500 7.0904
112.5600 3.1168
112.5700 4.0310
112.5800 4.7688
112.5900 4.8710
112.6000 5.9515
112.6100 7.4185
112.6200 3.1568
112.6300 5.9252
112.6400 1.7822
112.6500 4.5533
112.6600 3.3179
112.6700 4.8247
112.6800 8.1580
112.6900 8.3081
112.7000 5.1159
112.7100 5.7110
112.7200 7.0450
112.7300 2.8671
112.7400 3.4307
112.7500 5.5014
112.7600 7.4167
112.7700 5.6325
112.7800 10.0181
112.7900 7.8046
112.8000 6.2270
112.8100 6.2432
112.8200 6.4030
112.8300 6.1374
112.8400 8.3874
112.8500 8.9494
112.8600 7.8984
112.8700 9.9917
112.8800 7.0849
112.8900 9.1927
112.9000 8.1466
112.9100 7.9251
112.9200 8.0677
112.9300 6.9452
112.9400 3.9780
112.9500 8.3967
112.9600 4.5639
112.9700 4.3004
112.9800 3.6844
112.9900 4.5786
113.0000 6.5096
113.0100 3.2677
113.0200 6.6211
113.0300 3.5604
113.0400 6.2893
113.0500 7.1626
113.0600 4.4227
113.0700 11.6946
113.0800 14.5484
113.0900 16.3771
113.1000 10.3027
113.1100 5.1618
113.1200 8.5575
113.1300 6.9910
113.1400 6.8220
113.1500 4.1917
113.1600 3.3748
113.1700 4.8943
113.1800 2.9828
113.1900 9.3978
113.2000 4.7981
113.2100 7.8789
113.2200 1.9113
113.2300 6.0018
113.2400 7.3518
113.2500 6.5315
113.2600 6.2838
113.2700 6.7075
113.2800 4.3388
113.2900 4.1778
113.3000 7.9550
113.3100 3.0461
113.3200 5.0416
113.3300 4.7427
113.3400 1.6095
113.3500 5.8960
113.3600 7.1683
113.3700 3.4904
113.3800 8.6914
113.3900 2.4597
113.4000 5.3913
113.4100 1.9878
113.4200 15.8160
113.4300 8.1207
113.4400 6.7348
113.4500 5.2515
113.4600 6.1280
113.4700 3.2599
113.4800 5.4528
113.4900 4.6972
113.5000 1.8482
113.5100 6.8869
113.5200 4.7671
113.5300 8.0743
113.5400 6.0282
113.5500 7.3832
113.5600 10.0762
113.5700 7.4224
113.5800 10.9767
113.5900 7.8735
113.6000 12.5105
113.6100 6.0808
113.6200 6.0562
113.6300 5.5221
113.6400 5.3606
113.6500 8.7893
113.6600 6.8009
113.6700 11.1674
113.6800 4.6298
113.6900 12.4850
113.7000 5.1368
113.7100 10.2916
113.7200 6.1373
113.7300 6.9680
113.7400 8.6524
113.7500 7.7151
113.7600 5.5041
113.7700 7.7876
113.7800 11.8151
113.7900 7.6213
113.8000 5.4507
113.8100 7.2792
113.8200 4.1252
113.8300 4.8533
113.8400 6.5520
113.8500 6.6528
113.8600 7.2153
113.8700 3.1390
113.8800 3.2209
113.8900 2.1613
113.9000 7.8364
113.9100 1.0615
113.9200 4.6227
113.9300 6.2475
113.9400 5.7677
113.9500 8.9467
113.9600 5.6783
113.9700 8.4462
113.9800 11.4615
113.9900 6.1071
114.0000 5.8328
114.0100 7.2523
114.0200 7.0379
114.0300 2.7742
114.0400 6.2843
114.0500 5.8297
114.0600 6.2993
114.0700 5.1098
114.0800 4.7814
114.0900 11.2683
114.1000 9.1759
114.1100 13.2363
114.1200 10.7688
114.1300 10.1757
114.1400 6.5977
114.1500 9.9780
114.1600 7.6214
114.1700 9.4858
114.1800 9.2545
114.1900 4.6517
114.2000 5.2430
114.2100 9.9497
114.2200 5.4140
114.2300 6.3647
114.2400 7.0369
114.2500 4.7470
114.2600 6.2312
114.2700 6.0153
114.2800 5.2033
114.2900 7.1656
114.3000 9.5057
114.3100 6.2972
114.3200 10.1376
114.3300 4.3101
114.3400 11.0476
114.3500 7.6351
114.3600 9.0246
114.3700 5.5810
114.3800 8.5153
114.3900 10.0576
114.4000 8.4274
114.4100 10.2507
114.4200 5.3947
114.4300 8.1250
114.4400 4.4230
114.4500 10.5024
114.4600 5.0074
114.4700 4.4323
114.4800 3.9114
114.4900 4.3756
114.5000 2.3128
114.5100 11.0466
114.5200 9.4353
114.5300 7.1907
114.5400 5.6037
114.5500 7.1197
114.5600 5.8358
114.5700 4.3080
114.5800 7.2942
114.5900 6.3425
114.6000 8.9792
114.6100 5.9239
114.6200 9.3389
114.6300 5.5305
114.6400 4.2201
114.6500 10.0763
114.6600 10.3252
114.6700 6.0535
114.6800 9.0644
114.6900 10.4306
114.7000 8.4345
114.7100 5.9829
114.7200 3.0629
114.7300 4.9899
114.7400 3.5534
114.7500 7.2036
114.7600 4.7087
114.7700 6.9928
114.7800 7.0361
114.7900 6.5908
114.8000 4.2522
114.8100 4.1932
114.8200 0.9441
114.8300 1.9043
114.8400 5.9395
114.8500 3.3446
114.8600 6.8873
114.8700 6.2803
114.8800 8.2384
114.8900 8.0635
114.9000 6.5897
114.9100 4.2502
114.9200 8.0936
114.9300 3.5927
114.9400 3.0171
114.9500 5.1631
114.9600 3.2140
114.9700 4.8356
114.9800 7.5607
114.9900 5.3542
115.0000 7.1380
115.0100 6.3243
115.0200 7.3719
115.0300 6.5002
115.0400 5.9758
115.0500 4.5510
115.0600 2.8827
115.0700 3.7103
115.0800 5.8462
115.0900 2.5648
115.1000 4.7291
115.1100 8.0678
115.1200 12.3279
115.1300 8.6153
115.1400 3.8128
115.1500 2.0266
115.1600 15.1794
115.1700 8.5784
115.1800 3.7835
115.1900 5.8807
115.2000 7.0688
115.2100 12.1749
115.2200 8.6509
115.2300 3.9190
115.2400 10.7756
115.2500 5.9346
115.2600 7.2266
115.2700 8.1975
115.2800 5.2180
115.2900 8.0527
115.3000 6.7701
115.3100 16.1390
115.3200 5.3565
115.3300 4.6885
115.3400 9.4551
115.3500 8.7263
115.3600 7.6085
115.3700 5.0560
115.3800 4.3352
115.3900 8.0789
115.4000 4.7793
115.4100 4.9546
115.4200 4.8716
115.4300 4.6054
115.4400 7.5471
115.4500 4.3161
115.4600 7.0794
115.4700 3.4792
115.4800 6.2192
115.4900 10.1046
115.5000 4.6891
115.5100 6.5179
115.5200 9.3000
115.5300 8.5295
115.5400 8.1523
115.5500 9.4491
115.5600 10.6783
115.5700 10.1581
115.5800 8.7533
115.5900 6.3686
115.6000 6.9784
115.6100 8.4138
115.6200 6.7363
115.6300 9.5160
115.6400 13.9011
115.6500 15.7683
115.6600 10.6279
115.6700 16.1259
115.6800 8.6803
115.6900 7.3957
115.7000 6.7561
115.7100 15.1883
115.7200 14.2026
115.7300 11.3956
115.7400 15.8743
115.7500 14.1793
115.7600 10.8828
115.7700 16.3004
115.7800 13.2760
115.7900 8.8894
115.8000 8.3310
115.8100 9.5992
115.8200 11.2194
115.8300 13.6648
115.8400 9.6632
115.8500 13.2555
115.8600 9.9207
115.8700 6.9863
115.8800 16.2752
115.8900 16.5155
115.9000 12.3181
115.9100 7.8369
115.9200 14.5918
115.9300 18.1163
115.9400 13.3411
115.9500 14.0555
115.9600 10.7263
115.9700 8.0091
115.9800 14.6717
115.9900 15.8286
116.0000 14.4986
116.0100 13.5037
116.0200 15.0881
116.0300 11.3159
116.0400 8.3959
116.0500 12.7838
116.0600 13.7350
116.0700 10.2563
116.0800 10.9095
116.0900 12.7398
116.1000 8.4876
116.1100 14.5647
116.1200 9.3959
116.1300 10.7801
116.1400 14.0059
116.1500 13.1283
116.1600 13.5545
116.1700 10.1698
116.1800 13.0478
116.1900 12.2477
116.2000 19.2171
116.2100 14.3291
116.2200 16.8907
116.2300 13.2684
116.2400 8.8753
116.2500 10.3430
116.2600 9.1622
116.2700 13.9657
116.2800 5.8466
116.2900 7.8871
116.3000 6.2640
116.3100 10.2496
116.3200 11.5994
116.3300 19.4335
116.3400 8.7588
116.3500 21.6025
116.3600 14.4451
116.3700 13.3786
116.3800 8.5859
116.3900 9.0902
116.4000 7.4473
116.4100 10.2471
116.4200 7.9243
116.4300 18.3367
116.4400 10.0302
116.4500 10.1567
116.4600 13.1999
116.4700 10.3618
116.4800 9.8920
116.4900 9.5754
116.5000 10.0300
116.5100 7.7079
116.5200 11.9768
116.5300 11.4139
116.5400 14.9349
116.5500 10.4859
116.5600 8.6815
116.5700 6.4120
116.5800 8.7641
116.5900 8.0468
116.6000 11.1251
116.6100 8.2684
116.6200 11.3366
116.6300 5.7838
116.6400 11.5552
116.6500 5.5171
116.6600 10.7810
116.6700 7.2265
116.6800 4.2665
116.6900 8.4982
116.7000 7.5301
116.7100 11.3156
116.7200 6.5704
116.7300 8.6486
116.7400 6.6203
116.7500 8.6590
116.7600 8.5490
116.7700 7.8669
116.7800 10.0914
116.7900 8.7892
116.8000 8.3567
116.8100 6.4902
116.8200 5.4563
116.8300 9.5017
116.8400 6.2212
116.8500 12.5307
116.8600 9.4978
116.8700 5.5168
116.8800 8.3433
116.8900 11.3982
116.9000 7.8119
116.9100 6.9823
116.9200 2.8038
116.9300 7.7166
116.9400 4.7922
116.9500 7.3850
116.9600 4.4419
116.9700 7.3905
116.9800 6.0792
116.9900 4.6797
117.0000 8.8637
117.0100 8.2658
117.0200 6.7025
117.0300 7.8814
117.0400 6.8427
117.0500 3.4281
117.0600 6.0278
117.0700 8.3323
117.0800 6.5158
117.0900 10.0405
117.1000 7.4022
117.1100 5.9298
117.1200 6.9644
117.1300 8.4647
117.1400 5.3822
117.1500 7.3635
117.1600 8.2149
117.1700 10.5602
117.1800 8.4308
117.1900 5.6935
117.2000 8.9030
117.2100 5.0721
117.2200 7.8335
117.2300 8.0372
117.2400 3.8723
117.2500 4.2702
117.2600 5.7376
117.2700 3.4682
117.2800 4.2762
117.2900 8.1422
117.3000 3.0775
117.3100 4.1561
117.3200 6.7008
117.3300 1.5357
117.3400 7.4364
117.3500 6.1276
117.3600 6.1652
117.3700 3.1035
117.3800 5.0966
117.3900 10.2990
117.4000 5.4464
117.4100 3.6437
117.4200 8.8455
117.4300 13.0008
117.4400 13.2293
117.4500 12.9186
117.4600 13.7751
117.4700 8.4140
117.4800 8.9383
117.4900 13.8776
117.5000 9.3173
117.5100 4.5991
117.5200 6.4129
117.5300 4.9730
117.5400 4.0479
117.5500 5.3096
117.5600 2.7822
117.5700 5.3195
117.5800 4.2929
117.5900 4.1901
117.6000 3.2020
117.6100 4.1517
117.6200 3.1746
117.6300 3.1701
117.6400 5.2465
117.6500 2.8261
117.6600 7.1708
117.6700 4.9056
117.6800 3.4261
117.6900 6.8967
117.7000 2.2179
117.7100 5.1797
117.7200 9.2786
117.7300 5.3155
117.7400 4.1385
117.7500 4.8513
117.7600 5.7792
117.7700 8.7293
117.7800 11.2059
117.7900 6.2469
117.8000 13.1457
117.8100 5.5817
117.8200 7.0589
117.8300 1.9209
117.8400 7.5324
117.8500 3.6566
117.8600 4.1955
117.8700 4.0084
117.8800 10.4208
117.8900 7.2842
117.9000 6.3218
117.9100 6.4120
117.9200 5.0952
117.9300 2.9713
117.9400 7.2154
117.9500 3.6902
117.9600 6.6155
117.9700 7.8265
117.9800 7.5598
117.9900 5.3843
118.0000 4.1712
118.0100 3.9913
118.0200 3.8894
118.0300 4.5333
118.0400 8.6309
118.0500 7.0565
118.0600 5.2136
118.0700 4.1469
118.0800 4.2125
118.0900 5.1059
118.1000 5.5946
118.1100 2.1991
118.1200 6.9308
118.1300 6.5522
118.1400 7.7096
118.1500 5.3727
118.1600 9.3012
118.1700 8.8313
118.1800 4.9226
118.1900 3.8535
118.2000 7.5600
118.2100 7.2196
118.2200 3.0049
118.2300 7.0642
118.2400 9.3944
118.2500 3.1312
118.2600 5.8913
118.2700 7.3784
118.2800 6.5419
118.2900 7.2582
118.3000 4.8693
118.3100 4.3586
118.3200 10.1655
118.3300 5.3441
118.3400 6.3598
118.3500 7.1408
118.3600 7.0234
118.3700 5.5437
118.3800 5.5439
118.3900 7.5798
118.4000 8.9381
118.4100 8.1972
118.4200 3.2413
118.4300 8.1086
118.4400 5.3910
118.4500 8.2168
118.4600 6.8360
118.4700 10.4039
118.4800 7.8812
118.4900 8.9448
118.5000 5.4123
118.5100 6.5191
118.5200 4.7383
118.5300 5.2448
118.5400 3.5997
118.5500 8.1752
118.5600 0.6510
118.5700 10.3689
118.5800 2.9369
118.5900 5.7029
118.6000 5.6752
118.6100 3.8932
118.6200 5.4261
118.6300 6.0874
118.6400 12.3875
118.6500 5.0587
118.6600 9.1498
118.6700 10.1252
118.6800 5.1812
118.6900 2.0903
118.7000 6.5704
118.7100 8.5999
118.7200 5.0701
118.7300 6.5373
118.7400 7.9813
118.7500 9.3623
118.7600 8.2141
118.7700 6.1155
118.7800 3.6403
118.7900 4.6545
118.8000 5.5642
118.8100 6.0995
118.8200 4.7307
118.8300 3.3864
118.8400 4.5244
118.8500 8.7424
118.8600 2.6291
118.8700 2.7972
118.8800 6.2045
118.8900 7.6645
118.9000 6.7808
118.9100 5.5377
118.9200 5.7829
118.9300 4.8877
118.9400 9.7409
118.9500 8.8578
118.9600 9.3285
118.9700 8.5987
118.9800 2.2681
118.9900 4.0984
119.0000 4.3025
119.0100 4.8081
119.0200 6.2331
119.0300 6.0315
119.0400 3.0378
119.0500 5.2971
119.0600 5.7041
119.0700 7.8674
119.0800 6.6054
119.0900 7.4667
119.1000 5.9529
119.1100 4.8101
119.1200 7.2593
119.1300 5.8830
119.1400 8.7649
119.1500 5.6329
119.1600 5.0285
119.1700 3.7183
119.1800 9.9286
119.1900 6.4244
119.2000 6.1538
119.2100 6.4786
119.2200 9.6432
119.2300 5.0548
119.2400 10.1355
119.2500 4.4518
119.2600 12.0420
119.2700 6.8602
119.2800 7.2261
119.2900 6.3864
119.3000 8.9028
119.3100 8.8281
119.3200 5.4674
119.3300 18.8890
119.3400 9.8299
119.3500 13.5196
119.3600 10.3888
119.3700 10.7140
119.3800 9.5260
119.3900 8.1741
119.4000 8.2826
119.4100 2.0295
119.4200 9.7061
119.4300 5.3507
119.4400 1.7992
119.4500 1.5793
119.4600 3.8397
119.4700 6.5638
119.4800 7.5207
119.4900 3.8156
119.5000 6.0592
119.5100 3.2226
119.5200 5.5604
119.5300 14.8604
119.5400 7.1903
119.5500 10.9608
119.5600 8.6475
119.5700 13.7972
119.5800 3.4799
119.5900 8.5205
119.6000 6.7445
119.6100 7.4045
119.6200 4.4183
119.6300 6.0524
119.6400 2.9542
119.6500 6.4077
119.6600 7.3613
119.6700 2.5872
119.6800 6.6516
119.6900 3.5843
119.7000 5.8717
119.7100 1.0796
119.7200 3.1095
119.7300 5.2144
119.7400 7.3994
119.7500 4.4037
119.7600 8.3084
119.7700 9.0877
119.7800 9.1094
119.7900 6.8187
119.8000 7.6026
119.8100 11.2452
119.8200 10.4294
119.8300 10.2671
119.8400 5.3492
119.8500 8.8194
119.8600 2.1243
119.8700 7.4323
119.8800 4.2148
119.8900 6.2368
119.9000 4.8897
119.9100 4.2587
119.9200 5.2333
119.9300 10.4975
119.9400 8.7175
119.9500 6.6425
119.9600 2.8781
119.9700 3.5030
119.9800 5.2716
119.9900 7.5298
