#Collected Data-46
#Intensity_unit=counts
#Attenuator_coefficient=1.000000
40.0000 7.0760
40.0100 14.6463
40.0200 10.5175
40.0300 7.9811
40.0400 12.9267
40.0500 11.1626
40.0600 14.1970
40.0700 12.0003
40.0800 11.5803
40.0900 8.1900
40.1000 3.1465
40.1100 9.5964
40.1200 7.3939
40.1300 12.3359
40.1400 10.6058
40.1500 4.1481
40.1600 3.1445
40.1700 4.8477
40.1800 4.5339
40.1900 6.1887
40.2000 8.6617
40.2100 4.8293
40.2200 6.8995
40.2300 6.6419
40.2400 4.9774
40.2500 6.9173
40.2600 8.1918
40.2700 10.9565
40.2800 4.9734
40.2900 2.9306
40.3000 7.0467
40.3100 4.2471
40.3200 7.5877
40.3300 6.6459
40.3400 5.2901
40.3500 6.3662
40.3600 2.3299
40.3700 12.2729
40.3800 8.2750
40.3900 7.3634
40.4000 10.9759
40.4100 5.0715
40.4200 2.8860
40.4300 1.6750
40.4400 4.5070
40.4500 4.4968
40.4600 7.1539
40.4700 1.4103
40.4800 5.0434
40.4900 4.5410
40.5000 7.7474
40.5100 5.7942
40.5200 4.0663
40.5300 3.7903
40.5400 3.0404
40.5500 6.6509
40.5600 8.5366
40.5700 10.3235
40.5800 7.6444
40.5900 9.4689
40.6000 10.4101
40.6100 9.2432
40.6200 8.3474
40.6300 7.4828
40.6400 9.1364
40.6500 12.2407
40.6600 3.8468
40.6700 6.5186
40.6800 9.3914
40.6900 7.4613
40.7000 8.7356
40.7100 9.8650
40.7200 11.0557
40.7300 7.5982
40.7400 5.9175
40.7500 7.4324
40.7600 7.1481
40.7700 5.4434
40.7800 6.2450
40.7900 7.4438
40.8000 9.9879
40.8100 6.5835
40.8200 9.4012
40.8300 7.3909
40.8400 8.5492
40.8500 11.7341
40.8600 11.5011
40.8700 9.4414
40.8800 10.8616
40.8900 12.7941
40.9000 11.0627
40.9100 11.8841
40.9200 10.5018
40.9300 9.5906
40.9400 10.9278
40.9500 4.2582
40.9600 7.4016
40.9700 9.3328
40.9800 10.0237
40.9900 10.7115
41.0000 15.2931
41.0100 9.7666
41.0200 10.3479
41.0300 10.8979
41.0400 8.6555
41.0500 9.5091
41.0600 11.3796
41.0700 10.7848
41.0800 8.7614
41.0900 4.1508
41.1000 6.7511
41.1100 12.6012
41.1200 5.3978
41.1300 7.8338
41.1400 5.0838
41.1500 5.8135
41.1600 4.4039
41.1700 8.4331
41.1800 6.4434
41.1900 9.7307
41.2000 5.5278
41.2100 6.2300
41.2200 4.9746
41.2300 3.2666
41.2400 7.0159
41.2500 6.4573
41.2600 9.8572
41.2700 10.4849
41.2800 18.1948
41.2900 7.7330
41.3000 10.4818
41.3100 4.7524
41.3200 10.0604
41.3300 5.2698
41.3400 4.9183
41.3500 5.2628
41.3600 3.8627
41.3700 7.0286
41.3800 7.1792
41.3900 7.2427
41.4000 7.5895
41.4100 7.8063
41.4200 7.6746
41.4300 5.1534
41.4400 4.9150
41.4500 4.2092
41.4600 11.7527
41.4700 7.9856
41.4800 12.8781
41.4900 3.5718
41.5000 11.5959
41.5100 6.6667
41.5200 11.7578
41.5300 7.6614
41.5400 15.5465
41.5500 5.9273
41.5600 7.6378
41.5700 5.9966
41.5800 5.0333
41.5900 7.2764
41.6000 8.4039
41.6100 5.9253
41.6200 7.8134
41.6300 7.5598
41.6400 4.2743
41.6500 9.1398
41.6600 8.1490
41.6700 9.0121
41.6800 9.7854
41.6900 8.8069
41.7000 5.3040
41.7100 6.8427
41.7200 5.1769
41.7300 3.9962
41.7400 12.1885
41.7500 4.0344
41.7600 1.1245
41.7700 7.5453
41.7800 4.0533
41.7900 6.9865
41.8000 5.4333
41.8100 6.5016
41.8200 5.9560
41.8300 1.6276
41.8400 5.8228
41.8500 9.6218
41.8600 7.1587
41.8700 7.9191
41.8800 3.2588
41.8900 6.6780
41.9000 8.3371
41.9100 4.7675
41.9200 6.4539
41.9300 5.9423
41.9400 6.4145
41.9500 5.0705
41.9600 8.3795
41.9700 4.0893
41.9800 10.8132
41.9900 6.2318
42.0000 6.8790
42.0100 5.2483
42.0200 4.2305
42.0300 15.0960
42.0400 3.0667
42.0500 9.5544
42.0600 15.4693
42.0700 3.7332
42.0800 8.3385
42.0900 6.7849
42.1000 8.0156
42.1100 6.6097
42.1200 4.3848
42.1300 7.5321
42.1400 4.8893
42.1500 2.5607
42.1600 6.0527
42.1700 4.3399
42.1800 7.1469
42.1900 6.6426
42.2000 8.8440
42.2100 6.1864
42.2200 8.1665
42.2300 10.0982
42.2400 8.8629
42.2500 4.7164
42.2600 5.2881
42.2700 9.0050
42.2800 9.3064
42.2900 6.6389
42.3000 7.1504
42.3100 6.8499
42.3200 4.7166
42.3300 5.2465
42.3400 6.3406
42.3500 16.6804
42.3600 4.5691
42.3700 12.0009
42.3800 8.4764
42.3900 14.9072
42.4000 8.9503
42.4100 7.5104
42.4200 6.3013
42.4300 11.0311
42.4400 7.7942
42.4500 8.4938
42.4600 4.9705
42.4700 8.2114
42.4800 7.3780
42.4900 9.8878
42.5000 11.2949
42.5100 5.7618
42.5200 9.1368
42.5300 3.7240
42.5400 4.1596
42.5500 5.2598
42.5600 8.3080
42.5700 4.3786
42.5800 7.0878
42.5900 6.2985
42.6000 8.2395
42.6100 3.3495
42.6200 5.7632
42.6300 4.5224
42.6400 9.4818
42.6500 5.1882
42.6600 9.9585
42.6700 8.0307
42.6800 11.0935
42.6900 3.4209
42.7000 2.8957
42.7100 13.2707
42.7200 6.2572
42.7300 4.8778
42.7400 6.2486
42.7500 5.8378
42.7600 7.5012
42.7700 6.8807
42.7800 4.4678
42.7900 6.4253
42.8000 5.0508
42.8100 11.6496
42.8200 6.0803
42.8300 7.6550
42.8400 8.4232
42.8500 8.6745
42.8600 7.2220
42.8700 7.9393
42.8800 7.1135
42.8900 12.6631
42.9000 8.0166
42.9100 5.1681
42.9200 7.3142
42.9300 6.6956
42.9400 7.4672
42.9500 8.8746
42.9600 5.3233
42.9700 8.6345
42.9800 8.6516
42.9900 4.8114
43.0000 5.1131
43.0100 5.6688
43.0200 3.4420
43.0300 9.3930
43.0400 11.3291
43.0500 7.0060
43.0600 8.0812
43.0700 9.1347
43.0800 7.2077
43.0900 7.8699
43.1000 3.3827
43.1100 3.9587
43.1200 3.2091
43.1300 6.0723
43.1400 5.0840
43.1500 8.8771
43.1600 7.7908
43.1700 12.3447
43.1800 3.1928
43.1900 6.3537
43.2000 6.3028
43.2100 4.1378
43.2200 4.1637
43.2300 6.3107
43.2400 3.0275
43.2500 7.3327
43.2600 6.6018
43.2700 7.7281
43.2800 8.1410
43.2900 9.3223
43.3000 7.1659
43.3100 7.9067
43.3200 9.2689
43.3300 10.4725
43.3400 10.5102
43.3500 7.8019
43.3600 12.2533
43.3700 5.9884
43.3800 6.9332
43.3900 9.0761
43.4000 7.5897
43.4100 9.4153
43.4200 10.1780
43.4300 4.0945
43.4400 13.2163
43.4500 3.9662
43.4600 9.2946
43.4700 2.6461
43.4800 6.5331
43.4900 7.3011
43.5000 4.0847
43.5100 3.7265
43.5200 7.5424
43.5300 5.1228
43.5400 2.4631
43.5500 6.9968
43.5600 4.9569
43.5700 10.9745
43.5800 7.4165
43.5900 4.4378
43.6000 5.7278
43.6100 8.6584
43.6200 4.4464
43.6300 3.2042
43.6400 6.2276
43.6500 6.0527
43.6600 5.2581
43.6700 7.1618
43.6800 7.0442
43.6900 5.1164
43.7000 6.2207
43.7100 4.1579
43.7200 9.2619
43.7300 6.0023
43.7400 3.7772
43.7500 6.8378
43.7600 11.2206
43.7700 5.3640
43.7800 9.9907
43.7900 5.8466
43.8000 3.6862
43.8100 9.3324
43.8200 3.6830
43.8300 8.5719
43.8400 6.0084
43.8500 6.2547
43.8600 5.3310
43.8700 21.5685
43.8800 7.8337
43.8900 4.4802
43.9000 4.5405
43.9100 12.0955
43.9200 7.3567
43.9300 4.4534
43.9400 5.7587
43.9500 11.5346
43.9600 5.3237
43.9700 10.7072
43.9800 12.7077
43.9900 13.8359
44.0000 15.1655
44.0100 8.9133
44.0200 7.6331
44.0300 6.0007
44.0400 9.6656
44.0500 10.4202
44.0600 5.1559
44.0700 13.1357
44.0800 12.2765
44.0900 8.2472
44.1000 6.2795
44.1100 8.3266
44.1200 8.8170
44.1300 10.0778
44.1400 9.8605
44.1500 9.1656
44.1600 6.7354
44.1700 7.2057
44.1800 15.4404
44.1900 9.3362
44.2000 17.0084
44.2100 9.1545
44.2200 13.6997
44.2300 16.6722
44.2400 14.6994
44.2500 16.0068
44.2600 15.7936
44.2700 13.9006
44.2800 18.8078
44.2900 17.0833
44.3000 26.0666
44.3100 19.4591
44.3200 19.0406
44.3300 27.9782
44.3400 37.0595
44.3500 46.0615
44.3600 59.9393
44.3700 72.6047
44.3800 80.2400
44.3900 85.3735
44.4000 99.7226
44.4100 125.4473
44.4200 140.8403
44.4300 152.5928
44.4400 157.0776
44.4500 189.8708
44.4600 209.2328
44.4700 220.5729
44.4800 264.7174
44.4900 289.9548
44.5000 268.9289
44.5100 313.7850
44.5200 323.8742
44.5300 282.3141
44.5400 285.1568
44.5500 251.7351
44.5600 258.2906
44.5700 233.9632
44.5800 245.6135
44.5900 212.2907
44.6000 201.6788
44.6100 161.3918
44.6200 117.3775
44.6300 138.0700
44.6400 99.4808
44.6500 89.0554
44.6600 77.5665
44.6700 62.9723
44.6800 52.3396
44.6900 49.2403
44.7000 41.3142
44.7100 44.0610
44.7200 36.3345
44.7300 29.4808
44.7400 34.2296
44.7500 22.4909
44.7600 18.2408
44.7700 26.2159
44.7800 15.0854
44.7900 19.4998
44.8000 19.9367
44.8100 7.2260
44.8200 10.3879
44.8300 10.5094
44.8400 11.0811
44.8500 9.4494
44.8600 13.0522
44.8700 8.8281
44.8800 17.6070
44.8900 7.7665
44.9000 15.6479
44.9100 7.7433
44.9200 8.2665
44.9300 9.0576
44.9400 12.5632
44.9500 9.0564
44.9600 6.6059
44.9700 7.3680
44.9800 5.8541
44.9900 3.6767
45.0000 9.7759
45.0100 5.8370
45.0200 4.0599
45.0300 4.3717
45.0400 8.1681
45.0500 7.1130
45.0600 13.4324
45.0700 3.4644
45.0800 4.0319
45.0900 3.3321
45.1000 5.3970
45.1100 6.1023
45.1200 7.8517
45.1300 7.5627
45.1400 6.5928
45.1500 9.0704
45.1600 7.2391
45.1700 6.3992
45.1800 7.5598
45.1900 7.6484
45.2000 4.7448
45.2100 7.7127
45.2200 2.7086
45.2300 6.2319
45.2400 5.2865
45.2500 7.8117
45.2600 6.1535
45.2700 9.1032
45.2800 3.5550
45.2900 3.1829
45.3000 6.5434
45.3100 6.0181
45.3200 10.4162
45.3300 11.7316
45.3400 14.9983
45.3500 16.6065
45.3600 7.4064
45.3700 14.6601
45.3800 4.5972
45.3900 8.1701
45.4000 8.0587
45.4100 10.7084
45.4200 12.8492
45.4300 7.8427
45.4400 3.3746
45.4500 6.3352
45.4600 6.5020
45.4700 14.0244
45.4800 6.0221
45.4900 4.5889
45.5000 9.6169
45.5100 6.1308
45.5200 9.3653
45.5300 3.7349
45.5400 6.8571
45.5500 11.7906
45.5600 3.6220
45.5700 7.1231
45.5800 4.3045
45.5900 5.1373
45.6000 4.2832
45.6100 7.8267
45.6200 9.5982
45.6300 6.0161
45.6400 5.3864
45.6500 6.6748
45.6600 5.2810
45.6700 7.2781
45.6800 8.6104
45.6900 10.4903
45.7000 11.0976
45.7100 3.3137
45.7200 9.4294
45.7300 6.2606
45.7400 9.3491
45.7500 8.9072
45.7600 4.5334
45.7700 8.0304
45.7800 7.5962
45.7900 5.8166
45.8000 3.2474
45.8100 5.4364
45.8200 5.4338
45.8300 6.2103
45.8400 3.2262
45.8500 3.6845
45.8600 1.9259
45.8700 12.8635
45.8800 7.2804
45.8900 6.3995
45.9000 7.5387
45.9100 3.3615
45.9200 5.9782
45.9300 4.8230
45.9400 9.2229
45.9500 10.5555
45.9600 5.2265
45.9700 7.9437
45.9800 5.2973
45.9900 9.3643
46.0000 6.0032
46.0100 6.4618
46.0200 4.0386
46.0300 5.7337
46.0400 8.7003
46.0500 7.7126
46.0600 11.9214
46.0700 6.9590
46.0800 14.5024
46.0900 6.6061
46.1000 14.9768
46.1100 7.0689
46.1200 7.8050
46.1300 8.6436
46.1400 8.5573
46.1500 6.3875
46.1600 4.9496
46.1700 4.4655
46.1800 5.3086
46.1900 10.2746
46.2000 4.5863
46.2100 8.7895
46.2200 8.1638
46.2300 5.7727
46.2400 8.1866
46.2500 4.7697
46.2600 11.7564
46.2700 7.8966
46.2800 5.8539
46.2900 5.6401
46.3000 6.2344
46.3100 7.8646
46.3200 6.7109
46.3300 4.4637
46.3400 5.5056
46.3500 7.0920
46.3600 10.8311
46.3700 7.6105
46.3800 13.2586
46.3900 6.1294
46.4000 5.6689
46.4100 7.1415
46.4200 9.2316
46.4300 4.6224
46.4400 5.5280
46.4500 4.9528
46.4600 6.6848
46.4700 5.8524
46.4800 5.7305
46.4900 5.0290
46.5000 3.1557
46.5100 6.9530
46.5200 8.0148
46.5300 2.2358
46.5400 4.5932
46.5500 6.1201
46.5600 8.0806
46.5700 9.5155
46.5800 6.2017
46.5900 4.2721
46.6000 5.3800
46.6100 6.3739
46.6200 7.2029
46.6300 6.4393
46.6400 9.4378
46.6500 12.6254
46.6600 10.8312
46.6700 3.1515
46.6800 8.6188
46.6900 4.1823
46.7000 5.0503
46.7100 4.3089
46.7200 10.2758
46.7300 4.3546
46.7400 7.4594
46.7500 7.2823
46.7600 11.1643
46.7700 9.6255
46.7800 6.7386
46.7900 7.3380
46.8000 6.0466
46.8100 8.1074
46.8200 12.1227
46.8300 5.3506
46.8400 3.9949
46.8500 9.5213
46.8600 10.4130
46.8700 3.2362
46.8800 4.7498
46.8900 5.0067
46.9000 8.3938
46.9100 6.8516
46.9200 5.8832
46.9300 3.1918
46.9400 6.5549
46.9500 10.0494
46.9600 9.5418
46.9700 7.6796
46.9800 3.1519
46.9900 8.1832
47.0000 6.1491
47.0100 6.2550
47.0200 6.8525
47.0300 4.2858
47.0400 5.3406
47.0500 4.1703
47.0600 6.6441
47.0700 7.2101
47.0800 3.4541
47.0900 4.0124
47.1000 4.1279
47.1100 4.0078
47.1200 7.7377
47.1300 4.5931
47.1400 6.4885
47.1500 4.2665
47.1600 5.2339
47.1700 4.3741
47.1800 5.6398
47.1900 6.4810
47.2000 6.3785
47.2100 5.6589
47.2200 6.0217
47.2300 4.5317
47.2400 2.5916
47.2500 6.3167
47.2600 2.2080
47.2700 8.9101
47.2800 10.6179
47.2900 16.3540
47.3000 4.8844
47.3100 11.8020
47.3200 5.6423
47.3300 12.9673
47.3400 5.5417
47.3500 8.1873
47.3600 2.2606
47.3700 5.1280
47.3800 8.0850
47.3900 5.6654
47.4000 8.4290
47.4100 7.2858
47.4200 10.0424
47.4300 2.9285
47.4400 5.7527
47.4500 6.4835
47.4600 5.7963
47.4700 3.5857
47.4800 9.2021
47.4900 3.3607
47.5000 10.2410
47.5100 5.3916
47.5200 7.1996
47.5300 11.7616
47.5400 7.6822
47.5500 7.9030
47.5600 12.2646
47.5700 6.9951
47.5800 11.0378
47.5900 7.5764
47.6000 7.6624
47.6100 11.8590
47.6200 9.0161
47.6300 9.3846
47.6400 8.1012
47.6500 6.7928
47.6600 9.2544
47.6700 3.7425
47.6800 2.2404
47.6900 5.1391
47.7000 7.6841
47.7100 6.3403
47.7200 11.0895
47.7300 5.7412
47.7400 3.8742
47.7500 6.1609
47.7600 4.1725
47.7700 5.7950
47.7800 5.3049
47.7900 5.4305
47.8000 9.0013
47.8100 6.0365
47.8200 5.9964
47.8300 11.3048
47.8400 5.8659
47.8500 5.7972
47.8600 6.8343
47.8700 7.7491
47.8800 7.7481
47.8900 5.3302
47.9000 8.9928
47.9100 5.6894
47.9200 8.7457
47.9300 2.2333
47.9400 7.2414
47.9500 6.6017
47.9600 6.6213
47.9700 6.8647
47.9800 9.0361
47.9900 5.4519
48.0000 8.4412
48.0100 3.9379
48.0200 7.3486
48.0300 10.1024
48.0400 5.3110
48.0500 3.5595
48.0600 8.2129
48.0700 7.3417
48.0800 10.7817
48.0900 8.9478
48.1000 6.4500
48.1100 6.3173
48.1200 5.9864
48.1300 5.7727
48.1400 4.4594
48.1500 7.1936
48.1600 7.7266
48.1700 5.4192
48.1800 0.9728
48.1900 9.9095
48.2000 9.8077
48.2100 10.8274
48.2200 11.2305
48.2300 7.3019
48.2400 2.1555
48.2500 6.2421
48.2600 8.8830
48.2700 6.2817
48.2800 11.4416
48.2900 12.2510
48.3000 13.0857
48.3100 10.0435
48.3200 8.1549
48.3300 4.1356
48.3400 4.6761
48.3500 3.7332
48.3600 5.3397
48.3700 5.8930
48.3800 2.6502
48.3900 8.1938
48.4000 9.3061
48.4100 6.9978
48.4200 4.4681
48.4300 6.4584
48.4400 4.0959
48.4500 6.2114
48.4600 6.6188
48.4700 7.6596
48.4800 6.4964
48.4900 6.0547
48.5000 7.1030
48.5100 9.4999
48.5200 8.3721
48.5300 6.3768
48.5400 7.3857
48.5500 9.7351
48.5600 8.7542
48.5700 8.3343
48.5800 6.9343
48.5900 6.8081
48.6000 9.6893
48.6100 3.9684
48.6200 5.0176
48.6300 3.1528
48.6400 11.2306
48.6500 6.3108
48.6600 5.8853
48.6700 7.2081
48.6800 7.0385
48.6900 7.6170
48.7000 4.7767
48.7100 8.7040
48.7200 8.9644
48.7300 4.8244
48.7400 12.0239
48.7500 9.3815
48.7600 7.2865
48.7700 5.9836
48.7800 5.2797
48.7900 8.3432
48.8000 5.8350
48.8100 9.1448
48.8200 8.3580
48.8300 6.3929
48.8400 4.2567
48.8500 6.3733
48.8600 9.4093
48.8700 6.4998
48.8800 5.5831
48.8900 7.0400
48.9000 10.2238
48.9100 6.6348
48.9200 11.4399
48.9300 6.1917
48.9400 13.7039
48.9500 5.6718
48.9600 9.3198
48.9700 4.3596
48.9800 11.3981
48.9900 6.9208
49.0000 7.3811
49.0100 7.7323
49.0200 3.9603
49.0300 8.2615
49.0400 3.9210
49.0500 10.3265
49.0600 5.5871
49.0700 7.1736
49.0800 5.0068
49.0900 5.4214
49.1000 5.7532
49.1100 6.1680
49.1200 7.6217
49.1300 4.7618
49.1400 5.5308
49.1500 6.3976
49.1600 12.4945
49.1700 8.9424
49.1800 6.7453
49.1900 5.3853
49.2000 6.8110
49.2100 6.7877
49.2200 5.4049
49.2300 9.0489
49.2400 3.7983
49.2500 3.4466
49.2600 4.2145
49.2700 8.2548
49.2800 5.3909
49.2900 8.1270
49.3000 10.6438
49.3100 6.3347
49.3200 5.6638
49.3300 5.5445
49.3400 3.6912
49.3500 5.9459
49.3600 6.2375
49.3700 4.2673
49.3800 3.3283
49.3900 10.1169
49.4000 5.5192
49.4100 8.4345
49.4200 12.4863
49.4300 7.7929
49.4400 11.3540
49.4500 10.3911
49.4600 5.1236
49.4700 6.1075
49.4800 7.0094
49.4900 5.2441
49.5000 4.2746
49.5100 10.2068
49.5200 5.7270
49.5300 7.2946
49.5400 6.5850
49.5500 9.8803
49.5600 8.6516
49.5700 4.3456
49.5800 10.0386
49.5900 8.2521
49.6000 8.0861
49.6100 3.6679
49.6200 6.0257
49.6300 15.1408
49.6400 5.6456
49.6500 6.2395
49.6600 4.8646
49.6700 10.1216
49.6800 4.4236
49.6900 11.3964
49.7000 6.6698
49.7100 10.4190
49.7200 6.4746
49.7300 7.1443
49.7400 8.4910
49.7500 9.3803
49.7600 8.1258
49.7700 6.7816
49.7800 12.8548
49.7900 7.2329
49.8000 9.8681
49.8100 6.6895
49.8200 9.3034
49.8300 6.6109
49.8400 8.0924
49.8500 7.0992
49.8600 10.0485
49.8700 9.6197
49.8800 5.4026
49.8900 8.4807
49.9000 3.1432
49.9100 5.0214
49.9200 6.5515
49.9300 3.6173
49.9400 8.3105
49.9500 3.8395
49.9600 4.6324
49.9700 4.7377
49.9800 6.6144
49.9900 6.1645
50.0000 8.9225
50.0100 3.2486
50.0200 4.4798
50.0300 6.7902
50.0400 5.0470
50.0500 6.6733
50.0600 8.0382
50.0700 4.2180
50.0800 3.5187
50.0900 9.2851
50.1000 7.4814
50.1100 6.1515
50.1200 4.0915
50.1300 3.2034
50.1400 7.9850
50.1500 4.1733
50.1600 10.0515
50.1700 4.2120
50.1800 9.7938
50.1900 7.8341
50.2000 18.4919
50.2100 6.3983
50.2200 12.3406
50.2300 8.2301
50.2400 11.0969
50.2500 4.2322
50.2600 5.9690
50.2700 3.8631
50.2800 5.4992
50.2900 7.6987
50.3000 9.7020
50.3100 6.2186
50.3200 7.1110
50.3300 7.2304
50.3400 8.7543
50.3500 6.4224
50.3600 6.0269
50.3700 6.8169
50.3800 9.3372
50.3900 5.2943
50.4000 5.9122
50.4100 8.6874
50.4200 7.0641
50.4300 2.1768
50.4400 7.2337
50.4500 5.3577
50.4600 5.0169
50.4700 5.5024
50.4800 8.3981
50.4900 8.4753
50.5000 10.6813
50.5100 3.7079
50.5200 5.7835
50.5300 11.0411
50.5400 3.3470
50.5500 7.1088
50.5600 9.3177
50.5700 9.4892
50.5800 3.7477
50.5900 8.1887
50.6000 1.8207
50.6100 11.3291
50.6200 6.8198
50.6300 11.0038
50.6400 5.8099
50.6500 8.5113
50.6600 1.4299
50.6700 5.1972
50.6800 4.0885
50.6900 4.4132
50.7000 4.0981
50.7100 2.0642
50.7200 3.5658
50.7300 7.7795
50.7400 5.7468
50.7500 9.2503
50.7600 7.6255
50.7700 9.6787
50.7800 9.4919
50.7900 5.5303
50.8000 3.0907
50.8100 10.4344
50.8200 10.9466
50.8300 6.3382
50.8400 4.1540
50.8500 4.6578
50.8600 3.3536
50.8700 6.6422
50.8800 3.9218
50.8900 8.6952
50.9000 8.4141
50.9100 7.8816
50.9200 3.1661
50.9300 6.9882
50.9400 5.1013
50.9500 3.4221
50.9600 2.0539
50.9700 11.0273
50.9800 4.4922
50.9900 3.9559
51.0000 5.4148
51.0100 7.6758
51.0200 6.7744
51.0300 9.9702
51.0400 4.3988
51.0500 5.4146
51.0600 2.6575
51.0700 3.1651
51.0800 4.3234
51.0900 7.4011
51.1000 6.1350
51.1100 7.4794
51.1200 8.1525
51.1300 6.2789
51.1400 4.1051
51.1500 6.9649
51.1600 6.9078
51.1700 10.6113
51.1800 6.2717
51.1900 5.1350
51.2000 9.0365
51.2100 7.4388
51.2200 11.2719
51.2300 11.0158
51.2400 7.2426
51.2500 2.9704
51.2600 5.0091
51.2700 5.1266
51.2800 5.3771
51.2900 6.0087
51.3000 3.6336
51.3100 6.0569
51.3200 4.3551
51.3300 5.8808
51.3400 3.6009
51.3500 4.9440
51.3600 3.7262
51.3700 10.3316
51.3800 5.1465
51.3900 6.1604
51.4000 2.3723
51.4100 5.0609
51.4200 7.4784
51.4300 7.6346
51.4400 8.4245
51.4500 9.7767
51.4600 10.1849
51.4700 11.5513
51.4800 11.6108
51.4900 7.1928
51.5000 4.0819
51.5100 2.3764
51.5200 4.6725
51.5300 1.0952
51.5400 5.6136
51.5500 8.2024
51.5600 8.1282
51.5700 2.8414
51.5800 4.1750
51.5900 10.5101
51.6000 6.3415
51.6100 7.7006
51.6200 5.7879
51.6300 2.6062
51.6400 5.3805
51.6500 4.5300
51.6600 4.5227
51.6700 5.6255
51.6800 6.7811
51.6900 6.7872
51.7000 4.2390
51.7100 8.1155
51.7200 2.4745
51.7300 5.1433
51.7400 6.0086
51.7500 3.3460
51.7600 3.0822
51.7700 4.8653
51.7800 7.6161
51.7900 5.9999
51.8000 6.6973
51.8100 4.3461
51.8200 3.0577
51.8300 3.7743
51.8400 6.1754
51.8500 5.7104
51.8600 5.1478
51.8700 2.5589
51.8800 5.3580
51.8900 7.9271
51.9000 4.4241
51.9100 5.2197
51.9200 10.1506
51.9300 3.1989
51.9400 10.6197
51.9500 6.1978
51.9600 8.2606
51.9700 7.8899
51.9800 6.4289
51.9900 7.9185
52.0000 5.6312
52.0100 9.3637
52.0200 6.5670
52.0300 12.5612
52.0400 4.3933
52.0500 6.5024
52.0600 2.2392
52.0700 9.8986
52.0800 3.3674
52.0900 8.3899
52.1000 9.0568
52.1100 13.3349
52.1200 6.6333
52.1300 8.1994
52.1400 6.0552
52.1500 12.5502
52.1600 6.2258
52.1700 8.8009
52.1800 5.5161
52.1900 7.8761
52.2000 6.4066
52.2100 6.2939
52.2200 12.3067
52.2300 2.4789
52.2400 5.1560
52.2500 4.7373
52.2600 9.3314
52.2700 6.2090
52.2800 9.8197
52.2900 6.9090
52.3000 6.5888
52.3100 6.3838
52.3200 7.0956
52.3300 7.8858
52.3400 11.5898
52.3500 8.3744
52.3600 7.4108
52.3700 1.4594
52.3800 5.3244
52.3900 7.8270
52.4000 7.0538
52.4100 7.1169
52.4200 4.0352
52.4300 3.0694
52.4400 6.3300
52.4500 7.1422
52.4600 3.8316
52.4700 4.2410
52.4800 4.6200
52.4900 5.7299
52.5000 4.8872
52.5100 4.7181
52.5200 2.2046
52.5300 4.6830
52.5400 11.0435
52.5500 5.0165
52.5600 10.3051
52.5700 6.4278
52.5800 7.8437
52.5900 5.8295
52.6000 2.1801
52.6100 5.9982
52.6200 7.6245
52.6300 7.5125
52.6400 8.2622
52.6500 4.1129
52.6600 10.7920
52.6700 7.1696
52.6800 6.7296
52.6900 5.3728
52.7000 6.7029
52.7100 4.1804
52.7200 8.7476
52.7300 7.1183
52.7400 7.2758
52.7500 8.2659
52.7600 3.5318
52.7700 9.4514
52.7800 8.8180
52.7900 6.8989
52.8000 10.1444
52.8100 2.5028
52.8200 5.2905
52.8300 7.6240
52.8400 7.9940
52.8500 8.9513
52.8600 8.0118
52.8700 8.0966
52.8800 6.5928
52.8900 9.9880
52.9000 4.0116
52.9100 5.3628
52.9200 6.8821
52.9300 9.2609
52.9400 3.5573
52.9500 5.4009
52.9600 5.3454
52.9700 5.4790
52.9800 3.3134
52.9900 8.9589
53.0000 4.6200
53.0100 8.0113
53.0200 7.7950
53.0300 4.8279
53.0400 5.8253
53.0500 11.5733
53.0600 2.8704
53.0700 5.9589
53.0800 5.1188
53.0900 7.3851
53.1000 4.5423
53.1100 12.2680
53.1200 6.1465
53.1300 11.3921
53.1400 5.1483
53.1500 17.1078
53.1600 6.0262
53.1700 9.8555
53.1800 5.4114
53.1900 7.2834
53.2000 4.6993
53.2100 6.4500
53.2200 7.2452
53.2300 5.1823
53.2400 4.7239
53.2500 5.2598
53.2600 7.7977
53.2700 9.7978
53.2800 8.2308
53.2900 11.2877
53.3000 7.1347
53.3100 10.1656
53.3200 5.7145
53.3300 6.5916
53.3400 5.7870
53.3500 8.0609
53.3600 7.7809
53.3700 4.5026
53.3800 4.7314
53.3900 5.7871
53.4000 2.3102
53.4100 4.9713
53.4200 4.0557
53.4300 1.3993
53.4400 6.5483
53.4500 6.3145
53.4600 3.8485
53.4700 5.5636
53.4800 10.5186
53.4900 4.8525
53.5000 4.2529
53.5100 8.4988
53.5200 5.9589
53.5300 2.6801
53.5400 6.5225
53.5500 3.5038
53.5600 6.2195
53.5700 5.4085
53.5800 2.0375
53.5900 5.5119
53.6000 9.1453
53.6100 8.2461
53.6200 5.1136
53.6300 2.0708
53.6400 3.0507
53.6500 5.1754
53.6600 6.2122
53.6700 5.1370
53.6800 8.8622
53.6900 3.9898
53.7000 4.4521
53.7100 7.9682
53.7200 3.2199
53.7300 4.0171
53.7400 6.3264
53.7500 7.8171
53.7600 6.2272
53.7700 6.2357
53.7800 6.4304
53.7900 7.2899
53.8000 4.7444
53.8100 5.5064
53.8200 4.0206
53.8300 8.4363
53.8400 4.8389
53.8500 6.3936
53.8600 8.9529
53.8700 4.4765
53.8800 7.8890
53.8900 6.6173
53.9000 6.3403
53.9100 5.4119
53.9200 5.3571
53.9300 4.2261
53.9400 2.0912
53.9500 6.5946
53.9600 3.8183
53.9700 7.6160
53.9800 3.6744
53.9900 6.1624
54.0000 8.9959
54.0100 10.6891
54.0200 3.8087
54.0300 8.9381
54.0400 2.3913
54.0500 9.6499
54.0600 6.6886
54.0700 6.5534
54.0800 6.6884
54.0900 3.6142
54.1000 3.0041
54.1100 4.9768
54.1200 6.3533
54.1300 8.0909
54.1400 6.7374
54.1500 3.4378
54.1600 5.1464
54.1700 3.6230
54.1800 2.7747
54.1900 3.0868
54.2000 6.7396
54.2100 2.8569
54.2200 8.4331
54.2300 5.4040
54.2400 9.2749
54.2500 7.0918
54.2600 3.8355
54.2700 8.2342
54.2800 3.7665
54.2900 8.1761
54.3000 4.6982
54.3100 4.0202
54.3200 4.2141
54.3300 4.4681
54.3400 7.2859
54.3500 2.5353
54.3600 6.7684
54.3700 3.6899
54.3800 5.9977
54.3900 11.7252
54.4000 6.8924
54.4100 9.9263
54.4200 11.5157
54.4300 4.2730
54.4400 8.4707
54.4500 5.8669
54.4600 7.1057
54.4700 6.4197
54.4800 9.0467
54.4900 4.4732
54.5000 6.4133
54.5100 5.2618
54.5200 5.2943
54.5300 12.4847
54.5400 9.4289
54.5500 7.7518
54.5600 6.7657
54.5700 5.5837
54.5800 12.0274
54.5900 4.9427
54.6000 3.2094
54.6100 8.1170
54.6200 3.7305
54.6300 4.1436
54.6400 7.8766
54.6500 4.8827
54.6600 5.7712
54.6700 6.0371
54.6800 6.0645
54.6900 6.2890
54.7000 4.7471
54.7100 5.9260
54.7200 8.3911
54.7300 6.2659
54.7400 7.3633
54.7500 2.8120
54.7600 4.9245
54.7700 9.1344
54.7800 8.3402
54.7900 4.9681
54.8000 5.6373
54.8100 6.0665
54.8200 8.6823
54.8300 5.7020
54.8400 10.2070
54.8500 7.1849
54.8600 5.6581
54.8700 3.5298
54.8800 2.0793
54.8900 10.0665
54.9000 2.4010
54.9100 6.5425
54.9200 6.4498
54.9300 8.1606
54.9400 15.0586
54.9500 7.4569
54.9600 6.3367
54.9700 5.6676
54.9800 6.6771
54.9900 1.2072
55.0000 6.1152
55.0100 6.5470
55.0200 8.5844
55.0300 9.3458
55.0400 7.1443
55.0500 11.7381
55.0600 7.0606
55.0700 15.0416
55.0800 8.0983
55.0900 15.9510
55.1000 10.4004
55.1100 7.7709
55.1200 4.0688
55.1300 4.8088
55.1400 3.3633
55.1500 3.2249
55.1600 7.9787
55.1700 6.2750
55.1800 4.0514
55.1900 5.2947
55.2000 8.3360
55.2100 5.7881
55.2200 11.3271
55.2300 7.4119
55.2400 10.8630
55.2500 9.6792
55.2600 9.4115
55.2700 10.1821
55.2800 9.3357
55.2900 7.4544
55.3000 6.3533
55.3100 9.2800
55.3200 5.9391
55.3300 7.9990
55.3400 5.8127
55.3500 6.4811
55.3600 4.4863
55.3700 5.5509
55.3800 4.2265
55.3900 4.2787
55.4000 6.4218
55.4100 3.4376
55.4200 4.5260
55.4300 4.4100
55.4400 4.8974
55.4500 6.3985
55.4600 3.0404
55.4700 2.9559
55.4800 9.8176
55.4900 6.7057
55.5000 5.0536
55.5100 9.1909
55.5200 4.3557
55.5300 6.3945
55.5400 10.1112
55.5500 8.3206
55.5600 7.5429
55.5700 4.6937
55.5800 9.5602
55.5900 4.3239
55.6000 4.7905
55.6100 10.0694
55.6200 6.2055
55.6300 7.2784
55.6400 7.1789
55.6500 8.5953
55.6600 3.6068
55.6700 5.3077
55.6800 4.4072
55.6900 3.6965
55.7000 2.9534
55.7100 5.6464
55.7200 4.4094
55.7300 6.8858
55.7400 6.0156
55.7500 3.8639
55.7600 3.3034
55.7700 6.5485
55.7800 3.6540
55.7900 4.6993
55.8000 2.8075
55.8100 4.4729
55.8200 5.4805
55.8300 4.1207
55.8400 4.7009
55.8500 5.6295
55.8600 10.7210
55.8700 7.2179
55.8800 9.9374
55.8900 9.9792
55.9000 4.6496
55.9100 3.6387
55.9200 7.0355
55.9300 9.6805
55.9400 6.5433
55.9500 10.3749
55.9600 8.3731
55.9700 4.6877
55.9800 4.2068
55.9900 4.0670
56.0000 5.0125
56.0100 8.1856
56.0200 5.1814
56.0300 4.4403
56.0400 8.0250
56.0500 8.1458
56.0600 3.0197
56.0700 1.2306
56.0800 4.0128
56.0900 5.7581
56.1000 6.2857
56.1100 4.2263
56.1200 5.5725
56.1300 4.9016
56.1400 6.2598
56.1500 7.1483
56.1600 4.2531
56.1700 4.5868
56.1800 3.7211
56.1900 4.4808
56.2000 6.3811
56.2100 10.6219
56.2200 8.5506
56.2300 8.2842
56.2400 6.6420
56.2500 14.2097
56.2600 5.6792
56.2700 10.2504
56.2800 4.9847
56.2900 8.2714
56.3000 8.3180
56.3100 8.3960
56.3200 6.8426
56.3300 4.8608
56.3400 8.9655
56.3500 7.2121
56.3600 6.4664
56.3700 3.2579
56.3800 7.3777
56.3900 6.3049
56.4000 8.9291
56.4100 5.6399
56.4200 5.8837
56.4300 5.4395
56.4400 8.4716
56.4500 8.2743
56.4600 3.6726
56.4700 5.3606
56.4800 4.2621
56.4900 6.0427
56.5000 1.8575
56.5100 5.0878
56.5200 3.0385
56.5300 5.3280
56.5400 4.3217
56.5500 5.2409
56.5600 4.3529
56.5700 7.8354
56.5800 7.4397
56.5900 6.3428
56.6000 6.5306
56.6100 10.1354
56.6200 8.0271
56.6300 3.7552
56.6400 5.6162
56.6500 6.5114
56.6600 9.3842
56.6700 10.3273
56.6800 6.6762
56.6900 2.1104
56.7000 3.4066
56.7100 6.4043
56.7200 7.2217
56.7300 5.7696
56.7400 7.8082
56.7500 9.1511
56.7600 8.6585
56.7700 6.3489
56.7800 3.2864
56.7900 3.2921
56.8000 9.2657
56.8100 7.3062
56.8200 8.3405
56.8300 6.4371
56.8400 5.0415
56.8500 7.3173
56.8600 8.8199
56.8700 6.3567
56.8800 8.1560
56.8900 7.4827
56.9000 9.5256
56.9100 9.6456
56.9200 2.6502
56.9300 9.9754
56.9400 10.4616
56.9500 6.8109
56.9600 7.0445
56.9700 6.0069
56.9800 6.3564
56.9900 4.3920
57.0000 7.8915
57.0100 5.2775
57.0200 3.9476
57.0300 4.5024
57.0400 4.0795
57.0500 3.7627
57.0600 4.2286
57.0700 3.0169
57.0800 6.3343
57.0900 5.2686
57.1000 8.8806
57.1100 4.4688
57.1200 11.9540
57.1300 5.0989
57.1400 12.7670
57.1500 6.9954
57.1600 7.9375
57.1700 7.6288
57.1800 2.7581
57.1900 14.0557
57.2000 6.0659
57.2100 4.2710
57.2200 7.0475
57.2300 5.5224
57.2400 3.2824
57.2500 4.2276
57.2600 5.3131
57.2700 6.0895
57.2800 5.2200
57.2900 5.8981
57.3000 7.3313
57.3100 9.0727
57.3200 9.1130
57.3300 6.1092
57.3400 5.4335
57.3500 5.8880
57.3600 7.3405
57.3700 6.3750
57.3800 9.3026
57.3900 8.5272
57.4000 5.1250
57.4100 2.3711
57.4200 6.8936
57.4300 11.0618
57.4400 4.1284
57.4500 3.0177
57.4600 4.1197
57.4700 5.7036
57.4800 7.6534
57.4900 5.2034
57.5000 5.9864
57.5100 2.9869
57.5200 7.5182
57.5300 4.3188
57.5400 8.3436
57.5500 7.4771
57.5600 5.6426
57.5700 7.0169
57.5800 6.1004
57.5900 6.9473
57.6000 5.9699
57.6100 5.3102
57.6200 5.5470
57.6300 8.1478
57.6400 5.6020
57.6500 6.6828
57.6600 7.1089
57.6700 7.6314
57.6800 5.9884
57.6900 8.2709
57.7000 3.0338
57.7100 3.1760
57.7200 6.8265
57.7300 3.3711
57.7400 6.0664
57.7500 6.0305
57.7600 2.2298
57.7700 7.1687
57.7800 4.5449
57.7900 3.3089
57.8000 5.2340
57.8100 2.0215
57.8200 4.0664
57.8300 5.8287
57.8400 5.3187
57.8500 4.2920
57.8600 6.4895
57.8700 10.4547
57.8800 8.4043
57.8900 11.5831
57.9000 13.1900
57.9100 10.7893
57.9200 10.0769
57.9300 6.7005
57.9400 7.4470
57.9500 9.3113
57.9600 5.2600
57.9700 5.4381
57.9800 6.9364
57.9900 4.2135
58.0000 5.1750
58.0100 6.5674
58.0200 3.5883
58.0300 5.8787
58.0400 6.3240
58.0500 5.9735
58.0600 8.5342
58.0700 9.6138
58.0800 8.3322
58.0900 5.9032
58.1000 12.2372
58.1100 4.4985
58.1200 15.3267
58.1300 10.3002
58.1400 5.8984
58.1500 6.8842
58.1600 7.4126
58.1700 3.3775
58.1800 3.9645
58.1900 5.0674
58.2000 8.8138
58.2100 4.5231
58.2200 8.9295
58.2300 8.1086
58.2400 2.2372
58.2500 4.0828
58.2600 5.2685
58.2700 5.2782
58.2800 4.4521
58.2900 7.1288
58.3000 7.0936
58.3100 11.3769
58.3200 14.7567
58.3300 12.4158
58.3400 8.2991
58.3500 5.7035
58.3600 7.3529
58.3700 12.8454
58.3800 11.6361
58.3900 11.5073
58.4000 11.6598
58.4100 14.3286
58.4200 6.7318
58.4300 9.6784
58.4400 10.2971
58.4500 11.3729
58.4600 9.6620
58.4700 7.8969
58.4800 5.1712
58.4900 4.0070
58.5000 4.9129
58.5100 11.2076
58.5200 6.7212
58.5300 3.9900
58.5400 4.6337
58.5500 8.2248
58.5600 6.4449
58.5700 7.1491
58.5800 5.2054
58.5900 9.4196
58.6000 4.1293
58.6100 4.1988
58.6200 6.8616
58.6300 3.2673
58.6400 4.5795
58.6500 3.3881
58.6600 7.6724
58.6700 5.2740
58.6800 3.1765
58.6900 4.1693
58.7000 6.1296
58.7100 4.2434
58.7200 2.9538
58.7300 4.4861
58.7400 10.6144
58.7500 7.5815
58.7600 5.8502
58.7700 6.5423
58.7800 5.6483
58.7900 3.9343
58.8000 8.2156
58.8100 3.4887
58.8200 8.5930
58.8300 4.3122
58.8400 5.5527
58.8500 6.6500
58.8600 4.2004
58.8700 2.4991
58.8800 7.3722
58.8900 3.6577
58.9000 5.1697
58.9100 6.2742
58.9200 5.1392
58.9300 3.7605
58.9400 8.6241
58.9500 4.7210
58.9600 3.0589
58.9700 9.7761
58.9800 9.5358
58.9900 9.5958
59.0000 5.4773
59.0100 5.3426
59.0200 9.4064
59.0300 8.4814
59.0400 5.6697
59.0500 5.2935
59.0600 5.5249
59.0700 6.6379
59.0800 2.5629
59.0900 3.2569
59.1000 5.5360
59.1100 5.3024
59.1200 7.6989
59.1300 8.9133
59.1400 8.5746
59.1500 4.3635
59.1600 4.5752
59.1700 4.2344
59.1800 5.6410
59.1900 4.4938
59.2000 6.4082
59.2100 8.9311
59.2200 7.4073
59.2300 4.3212
59.2400 8.4260
59.2500 8.6499
59.2600 6.9291
59.2700 5.7060
59.2800 6.3919
59.2900 6.3543
59.3000 4.2012
59.3100 3.6304
59.3200 2.4089
59.3300 3.9858
59.3400 1.2072
59.3500 3.0862
59.3600 2.8862
59.3700 6.9158
59.3800 7.2755
59.3900 5.7409
59.4000 3.7146
59.4100 4.6306
59.4200 3.6381
59.4300 6.6133
59.4400 4.2699
59.4500 4.7111
59.4600 10.7049
59.4700 8.2631
59.4800 8.4126
59.4900 13.4577
59.5000 4.2533
59.5100 6.9879
59.5200 9.7493
59.5300 14.9725
59.5400 3.9654
59.5500 6.3799
59.5600 8.9253
59.5700 5.1765
59.5800 10.7806
59.5900 6.8199
59.6000 4.1616
59.6100 3.7403
59.6200 3.7484
59.6300 2.5994
59.6400 6.1799
59.6500 3.3195
59.6600 7.2038
59.6700 2.9026
59.6800 3.3851
59.6900 6.0692
59.7000 5.6502
59.7100 8.7752
59.7200 5.5701
59.7300 4.4992
59.7400 5.1086
59.7500 6.6450
59.7600 7.2711
59.7700 6.0479
59.7800 9.8319
59.7900 4.6468
59.8000 7.4548
59.8100 5.9849
59.8200 6.4489
59.8300 4.0823
59.8400 2.3960
59.8500 8.5266
59.8600 6.5279
59.8700 6.9467
59.8800 6.2184
59.8900 6.5473
59.9000 4.9614
59.9100 7.3029
59.9200 11.4556
59.9300 5.8798
59.9400 15.0869
59.9500 7.5534
59.9600 5.1029
59.9700 4.3968
59.9800 8.1836
59.9900 9.8563
60.0000 10.4161
60.0100 6.5295
60.0200 6.8531
60.0300 5.7606
60.0400 7.9109
60.0500 8.6480
60.0600 3.5949
60.0700 4.3473
60.0800 4.1129
60.0900 5.1142
60.1000 5.2185
60.1100 6.0183
60.1200 4.4522
60.1300 5.6417
60.1400 8.4881
60.1500 4.0925
60.1600 5.2373
60.1700 5.2660
60.1800 8.3250
60.1900 5.0523
60.2000 7.3021
60.2100 6.1433
60.2200 11.4294
60.2300 8.0404
60.2400 9.3920
60.2500 3.6166
60.2600 10.4840
60.2700 5.5756
60.2800 7.2594
60.2900 7.6100
60.3000 5.0146
60.3100 7.2153
60.3200 2.7110
60.3300 2.2028
60.3400 7.2521
60.3500 4.1835
60.3600 4.1361
60.3700 3.5069
60.3800 6.5640
60.3900 3.1869
60.4000 4.8127
60.4100 3.5328
60.4200 6.4828
60.4300 7.2049
60.4400 6.9645
60.4500 4.8541
60.4600 6.2331
60.4700 7.2055
60.4800 7.0140
60.4900 7.1313
60.5000 5.2103
60.5100 0.1454
60.5200 6.3520
60.5300 7.4261
60.5400 8.9326
60.5500 8.4591
60.5600 3.4992
60.5700 4.5227
60.5800 7.2347
60.5900 6.3900
60.6000 8.2148
60.6100 9.1923
60.6200 9.0515
60.6300 7.1814
60.6400 4.6950
60.6500 2.0425
60.6600 10.0474
60.6700 5.0631
60.6800 6.7064
60.6900 3.6936
60.7000 5.9476
60.7100 6.1769
60.7200 4.1587
60.7300 3.9747
60.7400 4.8635
60.7500 6.0442
60.7600 3.5179
60.7700 6.2021
60.7800 8.7170
60.7900 9.3445
60.8000 10.6409
60.8100 4.2770
60.8200 10.4452
60.8300 11.4309
60.8400 7.8639
60.8500 5.1373
60.8600 7.8741
60.8700 8.0340
60.8800 5.8191
60.8900 2.5374
60.9000 7.4394
60.9100 4.1250
60.9200 1.1928
60.9300 3.2336
60.9400 6.2010
60.9500 3.2953
60.9600 2.1982
60.9700 3.7607
60.9800 3.7897
60.9900 2.6108
61.0000 7.4030
61.0100 7.6602
61.0200 4.5269
61.0300 9.0653
61.0400 3.8727
61.0500 3.0079
61.0600 7.9401
61.0700 5.0745
61.0800 8.6784
61.0900 2.5537
61.1000 3.1096
61.1100 1.8523
61.1200 6.0950
61.1300 6.3429
61.1400 7.0950
61.1500 10.1641
61.1600 4.9897
61.1700 6.6606
61.1800 7.8884
61.1900 11.6403
61.2000 5.8849
61.2100 5.2244
61.2200 5.2784
61.2300 9.9990
61.2400 5.4141
61.2500 9.5198
61.2600 5.1008
61.2700 7.4666
61.2800 6.7501
61.2900 7.8555
61.3000 8.9859
61.3100 4.5487
61.3200 9.5291
61.3300 6.4348
61.3400 6.5664
61.3500 7.5776
61.3600 13.4908
61.3700 5.8103
61.3800 8.7116
61.3900 3.1710
61.4000 7.3030
61.4100 5.8406
61.4200 8.0461
61.4300 8.7772
61.4400 5.5089
61.4500 6.8929
61.4600 3.7536
61.4700 3.7546
61.4800 3.7034
61.4900 4.8178
61.5000 4.1328
61.5100 5.5048
61.5200 2.7390
61.5300 7.8937
61.5400 6.1546
61.5500 7.8051
61.5600 1.2840
61.5700 4.8615
61.5800 6.4274
61.5900 3.9482
61.6000 4.6931
61.6100 2.0614
61.6200 3.1461
61.6300 4.8257
61.6400 4.2630
61.6500 4.5406
61.6600 6.0105
61.6700 4.2922
61.6800 6.2351
61.6900 8.8765
61.7000 7.1036
61.7100 5.3398
61.7200 2.6721
61.7300 9.6181
61.7400 9.6308
61.7500 6.8972
61.7600 8.3217
61.7700 3.1934
61.7800 6.3286
61.7900 8.8220
61.8000 7.7848
61.8100 2.5193
61.8200 4.0805
61.8300 4.6358
61.8400 3.6810
61.8500 5.9095
61.8600 4.8345
61.8700 2.2354
61.8800 2.0423
61.8900 5.8782
61.9000 6.9969
61.9100 6.1453
61.9200 2.1856
61.9300 5.3279
61.9400 5.1384
61.9500 4.9840
61.9600 9.3495
61.9700 6.1025
61.9800 2.5800
61.9900 5.1348
62.0000 4.6324
62.0100 0.8441
62.0200 6.8806
62.0300 6.9283
62.0400 6.6156
62.0500 3.7128
62.0600 3.1461
62.0700 6.9493
62.0800 4.6839
62.0900 8.0388
62.1000 1.3052
62.1100 5.9343
62.1200 6.8131
62.1300 6.2747
62.1400 5.8340
62.1500 4.0060
62.1600 8.5924
62.1700 5.6758
62.1800 5.8710
62.1900 8.9203
62.2000 4.2062
62.2100 6.9815
62.2200 3.8047
62.2300 5.4277
62.2400 5.0368
62.2500 4.9214
62.2600 4.8487
62.2700 7.7658
62.2800 7.3344
62.2900 5.7125
62.3000 3.2196
62.3100 8.4430
62.3200 6.5945
62.3300 6.2709
62.3400 5.3786
62.3500 5.3466
62.3600 1.9671
62.3700 5.2984
62.3800 3.1428
62.3900 4.9847
62.4000 4.1465
62.4100 6.1417
62.4200 3.9442
62.4300 6.6924
62.4400 3.5606
62.4500 9.6418
62.4600 5.1398
62.4700 7.0025
62.4800 9.7794
62.4900 9.6873
62.5000 10.7045
62.5100 6.4748
62.5200 6.2622
62.5300 3.3407
62.5400 3.5875
62.5500 5.7745
62.5600 5.9265
62.5700 5.1413
62.5800 3.5295
62.5900 5.7004
62.6000 6.4179
62.6100 1.0116
62.6200 9.3176
62.6300 6.7477
62.6400 3.5906
62.6500 6.5530
62.6600 3.7943
62.6700 7.1269
62.6800 10.7959
62.6900 15.0108
62.7000 7.9394
62.7100 12.6168
62.7200 12.1900
62.7300 10.1137
62.7400 8.6824
62.7500 7.0555
62.7600 6.6618
62.7700 3.8862
62.7800 5.0175
62.7900 4.5111
62.8000 8.8659
62.8100 7.3288
62.8200 5.1061
62.8300 9.3372
62.8400 7.9611
62.8500 5.8050
62.8600 1.5969
62.8700 3.1965
62.8800 5.6444
62.8900 7.6507
62.9000 5.2047
62.9100 7.2019
62.9200 4.2410
62.9300 3.2552
62.9400 8.3140
62.9500 5.9785
62.9600 5.9880
62.9700 3.2363
62.9800 5.9160
62.9900 4.1443
63.0000 4.8713
63.0100 4.7929
63.0200 7.0102
63.0300 3.4875
63.0400 10.3137
63.0500 4.4333
63.0600 7.6718
63.0700 7.1248
63.0800 5.6002
63.0900 6.0337
63.1000 8.4783
63.1100 7.1810
63.1200 5.3348
63.1300 4.6090
63.1400 3.0336
63.1500 8.1971
63.1600 5.8207
63.1700 3.7046
63.1800 2.4764
63.1900 8.7574
63.2000 6.4645
63.2100 6.5548
63.2200 8.9111
63.2300 7.6251
63.2400 9.1521
63.2500 11.0229
63.2600 6.0889
63.2700 6.7578
63.2800 10.2062
63.2900 5.9693
63.3000 5.9632
63.3100 5.0898
63.3200 9.1401
63.3300 6.2944
63.3400 5.7396
63.3500 5.2379
63.3600 6.2104
63.3700 2.9299
63.3800 6.1499
63.3900 6.8480
63.4000 4.8162
63.4100 6.7719
63.4200 8.4234
63.4300 4.2048
63.4400 17.6632
63.4500 9.3995
63.4600 14.6135
63.4700 8.4443
63.4800 8.6240
63.4900 8.7462
63.5000 9.6749
63.5100 2.1654
63.5200 3.0016
63.5300 5.4886
63.5400 5.0930
63.5500 11.4873
63.5600 7.1986
63.5700 6.5421
63.5800 2.1857
63.5900 5.8577
63.6000 3.6093
63.6100 8.0335
63.6200 3.8046
63.6300 4.0899
63.6400 4.7962
63.6500 3.2082
63.6600 4.0599
63.6700 3.2011
63.6800 3.1944
63.6900 7.3611
63.7000 3.9994
63.7100 4.2131
63.7200 2.7265
63.7300 4.2187
63.7400 3.2677
63.7500 7.9919
63.7600 4.2891
63.7700 6.5223
63.7800 4.2620
63.7900 10.5296
63.8000 9.2667
63.8100 6.0397
63.8200 5.4263
63.8300 2.8163
63.8400 3.0273
63.8500 2.7075
63.8600 4.8327
63.8700 5.1652
63.8800 4.0782
63.8900 6.3548
63.9000 3.8000
63.9100 2.9704
63.9200 6.3165
63.9300 6.2237
63.9400 7.3743
63.9500 6.7957
63.9600 6.7930
63.9700 14.2239
63.9800 5.9532
63.9900 6.1088
64.0000 4.1945
64.0100 4.9978
64.0200 9.4704
64.0300 6.1174
64.0400 5.2445
64.0500 7.7825
64.0600 9.0096
64.0700 8.9579
64.0800 12.3811
64.0900 6.0112
64.1000 4.0491
64.1100 5.7167
64.1200 10.2979
64.1300 9.3162
64.1400 6.7423
64.1500 13.4569
64.1600 8.0070
64.1700 9.3202
64.1800 13.0199
64.1900 7.7912
64.2000 7.1297
64.2100 7.3472
64.2200 3.9873
64.2300 6.9546
64.2400 8.1796
64.2500 10.7884
64.2600 5.9333
64.2700 6.8579
64.2800 3.7862
64.2900 7.7477
64.3000 6.6312
64.3100 2.2706
64.3200 6.0846
64.3300 8.8362
64.3400 7.4106
64.3500 8.6303
64.3600 9.3607
64.3700 5.7037
64.3800 6.3684
64.3900 1.6649
64.4000 4.1204
64.4100 6.0919
64.4200 4.4564
64.4300 7.8463
64.4400 5.3280
64.4500 4.4357
64.4600 7.6052
64.4700 6.9816
64.4800 5.6782
64.4900 4.8109
64.5000 3.4818
64.5100 3.5002
64.5200 6.0169
64.5300 7.1124
64.5400 5.9987
64.5500 13.9136
64.5600 12.5814
64.5700 4.1366
64.5800 6.2067
64.5900 7.6789
64.6000 8.3624
64.6100 3.4295
64.6200 10.0939
64.6300 5.4578
64.6400 13.6673
64.6500 7.6816
64.6600 10.4119
64.6700 11.1816
64.6800 12.2924
64.6900 15.6066
64.7000 16.6114
64.7100 10.1959
64.7200 14.4257
64.7300 17.9674
64.7400 11.7551
64.7500 14.4518
64.7600 16.2392
64.7700 17.5458
64.7800 21.3180
64.7900 16.6995
64.8000 18.7078
64.8100 23.3246
64.8200 27.0162
64.8300 29.3564
64.8400 25.9884
64.8500 21.6285
64.8600 15.5373
64.8700 21.2072
64.8800 21.0541
64.8900 21.7297
64.9000 23.3987
64.9100 20.4579
64.9200 13.0373
64.9300 16.0305
64.9400 19.3641
64.9500 13.2925
64.9600 11.4099
64.9700 6.9678
64.9800 6.9662
64.9900 12.1801
65.0000 6.5406
65.0100 10.7658
65.0200 10.6202
65.0300 8.9052
65.0400 10.2272
65.0500 5.7428
65.0600 15.3490
65.0700 6.4548
65.0800 10.5589
65.0900 5.8251
65.1000 7.6671
65.1100 5.2729
65.1200 8.0755
65.1300 8.5697
65.1400 6.2505
65.1500 7.6888
65.1600 7.3217
65.1700 5.0685
65.1800 3.9171
65.1900 5.8594
65.2000 6.3584
65.2100 8.6327
65.2200 5.4188
65.2300 7.3902
65.2400 5.5288
65.2500 6.0435
65.2600 10.1094
65.2700 10.3236
65.2800 4.8801
65.2900 6.3746
65.3000 4.9435
65.3100 9.2758
65.3200 5.6201
65.3300 4.5809
65.3400 5.1231
65.3500 7.6888
65.3600 9.2446
65.3700 7.2714
65.3800 9.2351
65.3900 4.7263
65.4000 4.0776
65.4100 2.4789
65.4200 6.1265
65.4300 3.7753
65.4400 7.6765
65.4500 4.5358
65.4600 5.9205
65.4700 6.0679
65.4800 4.3093
65.4900 5.2160
65.5000 4.8147
65.5100 5.1947
65.5200 9.5419
65.5300 7.3614
65.5400 5.6512
65.5500 8.2935
65.5600 4.4510
65.5700 6.7485
65.5800 5.5273
65.5900 5.2951
65.6000 8.8282
65.6100 4.8145
65.6200 6.4481
65.6300 9.1808
65.6400 5.8368
65.6500 11.4762
65.6600 10.2502
65.6700 8.2035
65.6800 6.5031
65.6900 5.2961
65.7000 10.0494
65.7100 5.7413
65.7200 6.9895
65.7300 5.0031
65.7400 10.1859
65.7500 5.6939
65.7600 5.9210
65.7700 5.8559
65.7800 8.7445
65.7900 3.4151
65.8000 3.4077
65.8100 5.7777
65.8200 2.4322
65.8300 7.0460
65.8400 9.6514
65.8500 5.8919
65.8600 7.9416
65.8700 7.8980
65.8800 3.9757
65.8900 5.8518
65.9000 7.1413
65.9100 3.3694
65.9200 4.2706
65.9300 4.6325
65.9400 2.0549
65.9500 3.4985
65.9600 7.3012
65.9700 8.2122
65.9800 5.4614
65.9900 6.3596
66.0000 6.1356
66.0100 3.2611
66.0200 5.5217
66.0300 7.2070
66.0400 5.9092
66.0500 8.3786
66.0600 6.3909
66.0700 6.7881
66.0800 6.1776
66.0900 5.8526
66.1000 10.5211
66.1100 8.4452
66.1200 4.0654
66.1300 5.6847
66.1400 9.2537
66.1500 7.2838
66.1600 6.1142
66.1700 4.2676
66.1800 10.4847
66.1900 14.5505
66.2000 7.3764
66.2100 7.1888
66.2200 4.5344
66.2300 7.5382
66.2400 13.8476
66.2500 2.9386
66.2600 5.4695
66.2700 5.4958
66.2800 4.4699
66.2900 4.0595
66.3000 12.3218
66.3100 5.8380
66.3200 7.1339
66.3300 6.1221
66.3400 1.1063
66.3500 5.3883
66.3600 10.5038
66.3700 6.1543
66.3800 3.7151
66.3900 8.5619
66.4000 4.7119
66.4100 6.5031
66.4200 1.3039
66.4300 7.2601
66.4400 6.2313
66.4500 10.5377
66.4600 8.8317
66.4700 2.6887
66.4800 8.2613
66.4900 5.9885
66.5000 3.3900
66.5100 7.2507
66.5200 4.5705
66.5300 3.7102
66.5400 3.1414
66.5500 3.0487
66.5600 3.9729
66.5700 2.2057
66.5800 1.7197
66.5900 7.2896
66.6000 6.4662
66.6100 3.9817
66.6200 4.9398
66.6300 3.2979
66.6400 4.2092
66.6500 3.7535
66.6600 5.4210
66.6700 3.5628
66.6800 2.7326
66.6900 7.6384
66.7000 6.6873
66.7100 5.0048
66.7200 4.5762
66.7300 8.5739
66.7400 7.0972
66.7500 5.8088
66.7600 6.7096
66.7700 4.1648
66.7800 7.1237
66.7900 4.6147
66.8000 5.8079
66.8100 6.6555
66.8200 3.8469
66.8300 7.5090
66.8400 8.7289
66.8500 8.6257
66.8600 5.3643
66.8700 4.8293
66.8800 2.9058
66.8900 8.2695
66.9000 7.7813
66.9100 10.2206
66.9200 6.6040
66.9300 10.3753
66.9400 5.2349
66.9500 3.6791
66.9600 5.9954
66.9700 3.5654
66.9800 6.4885
66.9900 3.9803
67.0000 4.0971
67.0100 1.5640
67.0200 5.3657
67.0300 6.6760
67.0400 7.6096
67.0500 8.4358
67.0600 9.4358
67.0700 4.4464
67.0800 6.8835
67.0900 9.2528
67.1000 8.7218
67.1100 5.8571
67.1200 8.8791
67.1300 7.1374
67.1400 4.4860
67.1500 6.3385
67.1600 10.3512
67.1700 8.6795
67.1800 3.2810
67.1900 7.7030
67.2000 0.5945
67.2100 7.6738
67.2200 5.5732
67.2300 11.9141
67.2400 7.2762
67.2500 10.2983
67.2600 8.6659
67.2700 5.3844
67.2800 5.3085
67.2900 7.4963
67.3000 10.0285
67.3100 5.8435
67.3200 5.4755
67.3300 6.3876
67.3400 4.8310
67.3500 6.7572
67.3600 9.7825
67.3700 9.5648
67.3800 4.9747
67.3900 2.3958
67.4000 6.0140
67.4100 8.1514
67.4200 3.2220
67.4300 2.4717
67.4400 5.0832
67.4500 5.9001
67.4600 5.0813
67.4700 6.3693
67.4800 5.9077
67.4900 6.0366
67.5000 6.6234
67.5100 8.2862
67.5200 4.3300
67.5300 4.1410
67.5400 6.8415
67.5500 4.2861
67.5600 1.4701
67.5700 4.9636
67.5800 4.1146
67.5900 12.2315
67.6000 9.5053
67.6100 9.3326
67.6200 8.9779
67.6300 7.4170
67.6400 7.5713
67.6500 6.9115
67.6600 9.7522
67.6700 4.5911
67.6800 8.0662
67.6900 7.2611
67.7000 6.1516
67.7100 6.0157
67.7200 10.5481
67.7300 4.5383
67.7400 7.6537
67.7500 5.6425
67.7600 15.0749
67.7700 5.3171
67.7800 6.5007
67.7900 4.0907
67.8000 5.1101
67.8100 10.1009
67.8200 6.2043
67.8300 4.3435
67.8400 4.8963
67.8500 2.6743
67.8600 3.5503
67.8700 5.3624
67.8800 3.8949
67.8900 7.4557
67.9000 5.8620
67.9100 9.1599
67.9200 10.1007
67.9300 11.8101
67.9400 6.6555
67.9500 7.9178
67.9600 3.5849
67.9700 5.2324
67.9800 3.0444
67.9900 9.1367
68.0000 5.8516
68.0100 4.3923
68.0200 7.0215
68.0300 3.5596
68.0400 9.1462
68.0500 5.0173
68.0600 3.5064
68.0700 5.6732
68.0800 11.5753
68.0900 9.2037
68.1000 4.1029
68.1100 2.0972
68.1200 2.1845
68.1300 5.8547
68.1400 1.2144
68.1500 2.4842
68.1600 4.4265
68.1700 6.9164
68.1800 6.7946
68.1900 6.0613
68.2000 3.9452
68.2100 5.5576
68.2200 5.9176
68.2300 5.4757
68.2400 7.0980
68.2500 3.0665
68.2600 3.5685
68.2700 2.3141
68.2800 3.4988
68.2900 3.6125
68.3000 5.0770
68.3100 9.9756
68.3200 2.2056
68.3300 5.4210
68.3400 10.4243
68.3500 6.9953
68.3600 9.2635
68.3700 9.7579
68.3800 10.2270
68.3900 4.3420
68.4000 6.5876
68.4100 8.2837
68.4200 8.4885
68.4300 8.9602
68.4400 4.7585
68.4500 10.9986
68.4600 3.1718
68.4700 7.7940
68.4800 7.1384
68.4900 4.6779
68.5000 6.9789
68.5100 7.3449
68.5200 8.6206
68.5300 7.3958
68.5400 1.3616
68.5500 4.0969
68.5600 10.1734
68.5700 5.9922
68.5800 3.8526
68.5900 6.5485
68.6000 5.1277
68.6100 6.1457
68.6200 2.7130
68.6300 1.8107
68.6400 3.7764
68.6500 4.1462
68.6600 4.0753
68.6700 5.6419
68.6800 8.2309
68.6900 7.7458
68.7000 4.7233
68.7100 6.0653
68.7200 1.9059
68.7300 5.0265
68.7400 3.7520
68.7500 6.0393
68.7600 5.1957
68.7700 2.4394
68.7800 5.6511
68.7900 7.3847
68.8000 11.1532
68.8100 8.2247
68.8200 4.7676
68.8300 5.2370
68.8400 4.7461
68.8500 3.0658
68.8600 12.0284
68.8700 6.3975
68.8800 6.4270
68.8900 8.7344
68.9000 8.4994
68.9100 6.3536
68.9200 7.6621
68.9300 7.5337
68.9400 6.6744
68.9500 6.4651
68.9600 3.8349
68.9700 8.1885
68.9800 5.4364
68.9900 7.7576
69.0000 5.0108
69.0100 4.5498
69.0200 6.5219
69.0300 7.3668
69.0400 5.6659
69.0500 6.8745
69.0600 9.6182
69.0700 7.1624
69.0800 6.1706
69.0900 3.0812
69.1000 2.9582
69.1100 4.2403
69.1200 7.3374
69.1300 7.7458
69.1400 3.6661
69.1500 7.0439
69.1600 2.9619
69.1700 6.2555
69.1800 7.2940
69.1900 9.2940
69.2000 8.6354
69.2100 10.3627
69.2200 4.0157
69.2300 7.4479
69.2400 6.7708
69.2500 5.2203
69.2600 10.0282
69.2700 12.2266
69.2800 18.0900
69.2900 7.9323
69.3000 9.5099
69.3100 10.2262
69.3200 4.6326
69.3300 2.9741
69.3400 7.4903
69.3500 2.5438
69.3600 4.4212
69.3700 6.0315
69.3800 5.3564
69.3900 3.3469
69.4000 11.1045
69.4100 7.1001
69.4200 2.9484
69.4300 7.3877
69.4400 9.3460
69.4500 7.1579
69.4600 9.2359
69.4700 11.3680
69.4800 3.5474
69.4900 8.8799
69.5000 4.6851
69.5100 9.4260
69.5200 2.0692
69.5300 3.8074
69.5400 4.8214
69.5500 2.8577
69.5600 9.1284
69.5700 5.0064
69.5800 4.3580
69.5900 3.0555
69.6000 4.3047
69.6100 3.1839
69.6200 4.9901
69.6300 4.0208
69.6400 4.8131
69.6500 6.3629
69.6600 3.7626
69.6700 6.2997
69.6800 6.2469
69.6900 7.7450
69.7000 5.4814
69.7100 4.9828
69.7200 5.2157
69.7300 8.0096
69.7400 4.3010
69.7500 3.6922
69.7600 2.4580
69.7700 3.0385
69.7800 3.8566
69.7900 8.9781
69.8000 7.3728
69.8100 8.6695
69.8200 8.3149
69.8300 4.8609
69.8400 10.3155
69.8500 13.3020
69.8600 8.1325
69.8700 13.3583
69.8800 9.9038
69.8900 11.6140
69.9000 7.7357
69.9100 12.2798
69.9200 5.1367
69.9300 4.0609
69.9400 5.3421
69.9500 6.1536
69.9600 4.3259
69.9700 8.6656
69.9800 4.7968
69.9900 5.4248
70.0000 4.1634
70.0100 3.1565
70.0200 4.9014
70.0300 6.4295
70.0400 9.0792
70.0500 5.7865
70.0600 6.8235
70.0700 6.4881
70.0800 8.9273
70.0900 10.4217
70.1000 10.1566
70.1100 10.1977
70.1200 10.7184
70.1300 3.9877
70.1400 11.2328
70.1500 2.0428
70.1600 8.7010
70.1700 3.8762
70.1800 8.3481
70.1900 6.3144
70.2000 8.3036
70.2100 7.6872
70.2200 4.6579
70.2300 5.0402
70.2400 4.3014
70.2500 5.6253
70.2600 7.3639
70.2700 3.7496
70.2800 5.5680
70.2900 3.4768
70.3000 10.4689
70.3100 7.1249
70.3200 5.1442
70.3300 6.1540
70.3400 4.1122
70.3500 4.3627
70.3600 8.1571
70.3700 6.6727
70.3800 2.9859
70.3900 4.4683
70.4000 6.9026
70.4100 6.2885
70.4200 7.9562
70.4300 9.9070
70.4400 8.7398
70.4500 4.4766
70.4600 8.5276
70.4700 11.4314
70.4800 6.4277
70.4900 6.8962
70.5000 5.0311
70.5100 9.5439
70.5200 5.5907
70.5300 8.2424
70.5400 5.7344
70.5500 5.0907
70.5600 5.0298
70.5700 3.8649
70.5800 7.1730
70.5900 7.3187
70.6000 3.2980
70.6100 6.1394
70.6200 5.6540
70.6300 5.6333
70.6400 7.5582
70.6500 7.3567
70.6600 6.3136
70.6700 9.2172
70.6800 10.7438
70.6900 2.0854
70.7000 8.1768
70.7100 5.4960
70.7200 18.3691
70.7300 6.6110
70.7400 9.1610
70.7500 3.6950
70.7600 6.9937
70.7700 2.7781
70.7800 4.3276
70.7900 8.7248
70.8000 6.4741
70.8100 9.2821
70.8200 7.4248
70.8300 6.7265
70.8400 7.0787
70.8500 3.4790
70.8600 7.0774
70.8700 5.8625
70.8800 8.1141
70.8900 8.9118
70.9000 9.3046
70.9100 9.9800
70.9200 8.3419
70.9300 5.9916
70.9400 5.2811
70.9500 6.5130
70.9600 4.9851
70.9700 2.3656
70.9800 5.1119
70.9900 4.4845
71.0000 2.1994
71.0100 3.8662
71.0200 2.4803
71.0300 2.8469
71.0400 8.3157
71.0500 6.7720
71.0600 4.5484
71.0700 2.8509
71.0800 7.2436
71.0900 6.5765
71.1000 8.1562
71.1100 5.8214
71.1200 3.4288
71.1300 3.2122
71.1400 2.1321
71.1500 3.3270
71.1600 7.2467
71.1700 2.8550
71.1800 13.6839
71.1900 7.6113
71.2000 14.9627
71.2100 6.3683
71.2200 10.9010
71.2300 8.3306
71.2400 7.2071
71.2500 4.7249
71.2600 5.6807
71.2700 9.9800
71.2800 4.9455
71.2900 5.9877
71.3000 5.0800
71.3100 3.1578
71.3200 4.1940
71.3300 4.2246
71.3400 6.4384
71.3500 4.5382
71.3600 8.7027
71.3700 6.2571
71.3800 5.7097
71.3900 7.6368
71.4000 3.6288
71.4100 12.4821
71.4200 2.5291
71.4300 7.2285
71.4400 0.6805
71.4500 1.4259
71.4600 2.9839
71.4700 2.2145
71.4800 3.1699
71.4900 2.3382
71.5000 6.5153
71.5100 4.6499
71.5200 3.2017
71.5300 5.0509
71.5400 3.8550
71.5500 1.0910
71.5600 2.9799
71.5700 4.3595
71.5800 4.2429
71.5900 6.9676
71.6000 5.5891
71.6100 5.5020
71.6200 5.2893
71.6300 4.5893
71.6400 3.9009
71.6500 5.1485
71.6600 3.2228
71.6700 3.7758
71.6800 3.6055
71.6900 7.2538
71.7000 3.5787
71.7100 5.3826
71.7200 6.6204
71.7300 8.4771
71.7400 6.1213
71.7500 8.4639
71.7600 5.9653
71.7700 4.0891
71.7800 7.3029
71.7900 5.9323
71.8000 3.4895
71.8100 10.6347
71.8200 10.1485
71.8300 4.5249
71.8400 10.2610
71.8500 9.7162
71.8600 6.8989
71.8700 2.5325
71.8800 9.9492
71.8900 3.7520
71.9000 7.2596
71.9100 3.5254
71.9200 8.0807
71.9300 6.1574
71.9400 2.3552
71.9500 4.6292
71.9600 6.1980
71.9700 8.1633
71.9800 3.8626
71.9900 4.6725
72.0000 2.6641
72.0100 9.7947
72.0200 11.1215
72.0300 9.0666
72.0400 9.2815
72.0500 5.0573
72.0600 1.2749
72.0700 1.9247
72.0800 5.3184
72.0900 2.7315
72.1000 5.4389
72.1100 7.3232
72.1200 4.7021
72.1300 4.2682
72.1400 5.1953
72.1500 7.4882
72.1600 4.3812
72.1700 6.6022
72.1800 2.9193
72.1900 6.7888
72.2000 6.0333
72.2100 5.3849
72.2200 6.5770
72.2300 3.9731
72.2400 3.7524
72.2500 3.8690
72.2600 6.3883
72.2700 6.7208
72.2800 6.8981
72.2900 5.0537
72.3000 3.6368
72.3100 4.1244
72.3200 3.7999
72.3300 9.8974
72.3400 5.1455
72.3500 7.4386
72.3600 7.5455
72.3700 8.6763
72.3800 8.8166
72.3900 4.3546
72.4000 9.2786
72.4100 6.8764
72.4200 11.4398
72.4300 6.9465
72.4400 5.6701
72.4500 5.9350
72.4600 8.2024
72.4700 11.1066
72.4800 5.4373
72.4900 8.7733
72.5000 5.0443
72.5100 8.5688
72.5200 4.8430
72.5300 6.3672
72.5400 6.6894
72.5500 5.4103
72.5600 6.4478
72.5700 5.2166
72.5800 6.0244
72.5900 2.3735
72.6000 5.1848
72.6100 9.9816
72.6200 4.9099
72.6300 5.3547
72.6400 3.2547
72.6500 7.4765
72.6600 3.2994
72.6700 3.0844
72.6800 11.1431
72.6900 4.2564
72.7000 4.2259
72.7100 10.0779
72.7200 5.6267
72.7300 10.8545
72.7400 10.0371
72.7500 10.3809
72.7600 6.8693
72.7700 6.0168
72.7800 5.4538
72.7900 6.1286
72.8000 7.2669
72.8100 4.8083
72.8200 3.4296
72.8300 2.7086
72.8400 2.6875
72.8500 6.4673
72.8600 5.0253
72.8700 3.1274
72.8800 5.1746
72.8900 8.0541
72.9000 3.1983
72.9100 9.5992
72.9200 7.4936
72.9300 7.2828
72.9400 4.6048
72.9500 4.4508
72.9600 4.3044
72.9700 6.0111
72.9800 8.0656
72.9900 5.0549
73.0000 6.4083
73.0100 5.4169
73.0200 5.5305
73.0300 7.9247
73.0400 4.7140
73.0500 2.8884
73.0600 7.2153
73.0700 8.1372
73.0800 6.8322
73.0900 2.8479
73.1000 5.9310
73.1100 2.2606
73.1200 8.0671
73.1300 2.1482
73.1400 6.8893
73.1500 3.1067
73.1600 2.4636
73.1700 3.6887
73.1800 5.1065
73.1900 5.0223
73.2000 4.8887
73.2100 2.2730
73.2200 5.6218
73.2300 9.0557
73.2400 6.8633
73.2500 11.7481
73.2600 12.4388
73.2700 12.9612
73.2800 10.8712
73.2900 11.4917
73.3000 7.4170
73.3100 8.2294
73.3200 5.2996
73.3300 8.1192
73.3400 3.4738
73.3500 8.9501
73.3600 3.4157
73.3700 13.7010
73.3800 6.6441
73.3900 15.3680
73.4000 6.9055
73.4100 9.8710
73.4200 8.0622
73.4300 10.5701
73.4400 6.6623
73.4500 10.1645
73.4600 3.4888
73.4700 6.7188
73.4800 5.7978
73.4900 9.6301
73.5000 5.3735
73.5100 10.4453
73.5200 6.2807
73.5300 7.0209
73.5400 6.5976
73.5500 6.4973
73.5600 3.3850
73.5700 10.4913
73.5800 13.4489
73.5900 11.6520
73.6000 7.0830
73.6100 4.3264
73.6200 9.3475
73.6300 12.5268
73.6400 5.2827
73.6500 4.5715
73.6600 8.4193
73.6700 4.9027
73.6800 12.1649
73.6900 9.1128
73.7000 6.3315
73.7100 5.1228
73.7200 4.8244
73.7300 6.3208
73.7400 3.3287
73.7500 6.3509
73.7600 5.8098
73.7700 6.3039
73.7800 3.3996
73.7900 4.0738
73.8000 2.6529
73.8100 6.1788
73.8200 1.9992
73.8300 10.6239
73.8400 2.9629
73.8500 6.1938
73.8600 2.5289
73.8700 7.2356
73.8800 1.3698
73.8900 7.8412
73.9000 3.6752
73.9100 3.7292
73.9200 5.0933
73.9300 8.2684
73.9400 2.4095
73.9500 3.8897
73.9600 9.2190
73.9700 7.5185
73.9800 8.3922
73.9900 7.5544
74.0000 6.4028
74.0100 11.1469
74.0200 8.3315
74.0300 6.7792
74.0400 5.0023
74.0500 8.8514
74.0600 7.3327
74.0700 5.1140
74.0800 8.0252
74.0900 3.0350
74.1000 4.7734
74.1100 2.9842
74.1200 3.7788
74.1300 8.7914
74.1400 8.1240
74.1500 5.9327
74.1600 6.0763
74.1700 5.2348
74.1800 5.4174
74.1900 5.7047
74.2000 4.9959
74.2100 9.1855
74.2200 14.3150
74.2300 8.1372
74.2400 7.6669
74.2500 4.9248
74.2600 7.2505
74.2700 4.3145
74.2800 5.5960
74.2900 9.1556
74.3000 6.8839
74.3100 8.8869
74.3200 4.2447
74.3300 5.8059
74.3400 7.0442
74.3500 6.3803
74.3600 8.3621
74.3700 6.7200
74.3800 1.3537
74.3900 2.1319
74.4000 2.5977
74.4100 5.0727
74.4200 6.3588
74.4300 3.6918
74.4400 4.7191
74.4500 5.4512
74.4600 4.0417
74.4700 3.4624
74.4800 2.1058
74.4900 4.4751
74.5000 8.4464
74.5100 8.6762
74.5200 7.0031
74.5300 3.1025
74.5400 2.5343
74.5500 4.0152
74.5600 5.2516
74.5700 3.3914
74.5800 7.5611
74.5900 2.3410
74.6000 6.5106
74.6100 1.6370
74.6200 3.6181
74.6300 7.8433
74.6400 6.4046
74.6500 6.8626
74.6600 4.8428
74.6700 4.8441
74.6800 10.9905
74.6900 4.2517
74.7000 6.3409
74.7100 1.8269
74.7200 4.9160
74.7300 7.6525
74.7400 6.5321
74.7500 6.9013
74.7600 5.1670
74.7700 5.2737
74.7800 5.1667
74.7900 2.8499
74.8000 5.2297
74.8100 3.2693
74.8200 5.5602
74.8300 9.5968
74.8400 15.2181
74.8500 6.8095
74.8600 6.6976
74.8700 7.5896
74.8800 3.1030
74.8900 13.5889
74.9000 6.3953
74.9100 14.5271
74.9200 7.0105
74.9300 5.6765
74.9400 9.3512
74.9500 8.7861
74.9600 6.0791
74.9700 8.8314
74.9800 6.8432
74.9900 6.1928
75.0000 8.5342
75.0100 8.1478
75.0200 4.1226
75.0300 7.5483
75.0400 7.0376
75.0500 6.1059
75.0600 7.1396
75.0700 5.9425
75.0800 4.5490
75.0900 4.0387
75.1000 4.8539
75.1100 3.1240
75.1200 12.4966
75.1300 8.5301
75.1400 6.7814
75.1500 6.9945
75.1600 4.1627
75.1700 10.9759
75.1800 10.0835
75.1900 4.7059
75.2000 8.7301
75.2100 6.0592
75.2200 8.5615
75.2300 5.0248
75.2400 4.3243
75.2500 8.3481
75.2600 10.4373
75.2700 7.6318
75.2800 5.3266
75.2900 7.0224
75.3000 7.5763
75.3100 1.7971
75.3200 2.0085
75.3300 8.9692
75.3400 3.5991
75.3500 7.6383
75.3600 6.5099
75.3700 11.1310
75.3800 6.7162
75.3900 4.1143
75.4000 4.5679
75.4100 7.7980
75.4200 4.9150
75.4300 3.5908
75.4400 7.7460
75.4500 2.3373
75.4600 4.5300
75.4700 8.4550
75.4800 11.3817
75.4900 6.9566
75.5000 6.0027
75.5100 7.1572
75.5200 5.9162
75.5300 9.5587
75.5400 5.4976
75.5500 5.9648
75.5600 2.0836
75.5700 4.9914
75.5800 7.0632
75.5900 7.0045
75.6000 10.8882
75.6100 2.8165
75.6200 3.5054
75.6300 5.9005
75.6400 2.8505
75.6500 5.6003
75.6600 7.5973
75.6700 1.2510
75.6800 9.5913
75.6900 6.2401
75.7000 6.7600
75.7100 10.3063
75.7200 6.9212
75.7300 10.8890
75.7400 5.3778
75.7500 9.3550
75.7600 7.2404
75.7700 8.1073
75.7800 6.8317
75.7900 10.8047
75.8000 6.4733
75.8100 8.3276
75.8200 2.2453
75.8300 7.4629
75.8400 2.6114
75.8500 5.0044
75.8600 7.1491
75.8700 6.7062
75.8800 10.3986
75.8900 9.3120
75.9000 6.4983
75.9100 5.3551
75.9200 8.3558
75.9300 8.1718
75.9400 5.2883
75.9500 4.5011
75.9600 5.9791
75.9700 3.4193
75.9800 6.2527
75.9900 7.4570
76.0000 7.7771
76.0100 8.7809
76.0200 6.4733
76.0300 6.2904
76.0400 10.0215
76.0500 7.7292
76.0600 5.8230
76.0700 4.4016
76.0800 7.0164
76.0900 3.3854
76.1000 3.7147
76.1100 5.9405
76.1200 6.1166
76.1300 4.1509
76.1400 4.8083
76.1500 9.0577
76.1600 3.5213
76.1700 8.2403
76.1800 7.9920
76.1900 3.6509
76.2000 3.7844
76.2100 4.4169
76.2200 1.7385
76.2300 4.7320
76.2400 2.4528
76.2500 7.9453
76.2600 2.9984
76.2700 6.6293
76.2800 1.1458
76.2900 3.7261
76.3000 6.5814
76.3100 4.8919
76.3200 1.3856
76.3300 3.2200
76.3400 6.7366
76.3500 4.0973
76.3600 7.9592
76.3700 3.5153
76.3800 7.0981
76.3900 2.0919
76.4000 9.1748
76.4100 3.3662
76.4200 6.8220
76.4300 4.6366
76.4400 2.0774
76.4500 2.5097
76.4600 4.0897
76.4700 2.0200
76.4800 3.2358
76.4900 2.9113
76.5000 10.0526
76.5100 6.7850
76.5200 6.6071
76.5300 3.1017
76.5400 5.1252
76.5500 2.4804
76.5600 2.0168
76.5700 4.0327
76.5800 10.0060
76.5900 6.0000
76.6000 8.2835
76.6100 9.4514
76.6200 7.4642
76.6300 5.5326
76.6400 7.7877
76.6500 3.1086
76.6600 8.0038
76.6700 3.6926
76.6800 9.8379
76.6900 3.4051
76.7000 6.0746
76.7100 5.4625
76.7200 8.0331
76.7300 8.1653
76.7400 9.1648
76.7500 7.8488
76.7600 2.5916
76.7700 5.9798
76.7800 4.7049
76.7900 5.2361
76.8000 8.1304
76.8100 9.3739
76.8200 1.3710
76.8300 6.0584
76.8400 8.4217
76.8500 6.8474
76.8600 4.6285
76.8700 3.7560
76.8800 8.8235
76.8900 7.4420
76.9000 4.0832
76.9100 3.4116
76.9200 8.4917
76.9300 8.2736
76.9400 7.3367
76.9500 8.0946
76.9600 8.3174
76.9700 10.3963
76.9800 5.2125
76.9900 4.7785
77.0000 0.2790
77.0100 6.7715
77.0200 6.0288
77.0300 6.5287
77.0400 8.5118
77.0500 6.6898
77.0600 7.3630
77.0700 5.2833
77.0800 5.7744
77.0900 6.1942
77.1000 4.5472
77.1100 1.8170
77.1200 6.8798
77.1300 3.2191
77.1400 2.9288
77.1500 3.2751
77.1600 4.8244
77.1700 4.8451
77.1800 5.3421
77.1900 8.2001
77.2000 9.6947
77.2100 9.0347
77.2200 4.2956
77.2300 3.3381
77.2400 6.0903
77.2500 3.0427
77.2600 5.3424
77.2700 8.7955
77.2800 4.1210
77.2900 11.4215
77.3000 4.1878
77.3100 9.4985
77.3200 4.5141
77.3300 9.4794
77.3400 7.5855
77.3500 8.1072
77.3600 8.0830
77.3700 4.1648
77.3800 7.1791
77.3900 6.0425
77.4000 7.8375
77.4100 5.7835
77.4200 6.6939
77.4300 6.9359
77.4400 9.4371
77.4500 5.6595
77.4600 9.3551
77.4700 3.4330
77.4800 8.6824
77.4900 3.6842
77.5000 5.5612
77.5100 3.7904
77.5200 4.3470
77.5300 9.7048
77.5400 4.3557
77.5500 2.1512
77.5600 2.1665
77.5700 6.0186
77.5800 1.5283
77.5900 6.9907
77.6000 4.8937
77.6100 9.4465
77.6200 5.0330
77.6300 7.8247
77.6400 4.5189
77.6500 3.4000
77.6600 9.1738
77.6700 4.3023
77.6800 3.9231
77.6900 1.8809
77.7000 6.6897
77.7100 7.8400
77.7200 7.7722
77.7300 7.8633
77.7400 10.4038
77.7500 10.6176
77.7600 7.7794
77.7700 6.2453
77.7800 5.2742
77.7900 6.8469
77.8000 11.9815
77.8100 5.1046
77.8200 7.5204
77.8300 6.6523
77.8400 5.4846
77.8500 8.3001
77.8600 5.7068
77.8700 5.2450
77.8800 12.0590
77.8900 5.4832
77.9000 12.1986
77.9100 7.1365
77.9200 9.8269
77.9300 3.2746
77.9400 5.2596
77.9500 2.6493
77.9600 5.7583
77.9700 2.9943
77.9800 6.2897
77.9900 7.6491
78.0000 8.0920
78.0100 4.3235
78.0200 4.0431
78.0300 6.0454
78.0400 8.6876
78.0500 8.3089
78.0600 9.4676
78.0700 9.0036
78.0800 6.6411
78.0900 3.7556
78.1000 6.7291
78.1100 5.9715
78.1200 7.0794
78.1300 6.6339
78.1400 7.1889
78.1500 5.8184
78.1600 6.2612
78.1700 7.0764
78.1800 0.2907
78.1900 7.1155
78.2000 6.1307
78.2100 4.0882
78.2200 4.5245
78.2300 4.2248
78.2400 9.7471
78.2500 3.5729
78.2600 5.5340
78.2700 5.2545
78.2800 4.6447
78.2900 2.0191
78.3000 6.0216
78.3100 3.9981
78.3200 7.4092
78.3300 4.7623
78.3400 14.2042
78.3500 5.9564
78.3600 7.1759
78.3700 6.6922
78.3800 5.0183
78.3900 5.1155
78.4000 9.2865
78.4100 7.8482
78.4200 9.5633
78.4300 4.3004
78.4400 4.6036
78.4500 7.6619
78.4600 3.9327
78.4700 4.5752
78.4800 4.7036
78.4900 5.1378
78.5000 7.9562
78.5100 4.3125
78.5200 6.3926
78.5300 5.1084
78.5400 3.3450
78.5500 2.9492
78.5600 5.2135
78.5700 5.9167
78.5800 11.0856
78.5900 9.3788
78.6000 14.2528
78.6100 7.4138
78.6200 15.6154
78.6300 8.6092
78.6400 7.6856
78.6500 9.8668
78.6600 7.6630
78.6700 9.2362
78.6800 6.9209
78.6900 7.4110
78.7000 6.2658
78.7100 7.6405
78.7200 3.3690
78.7300 15.7449
78.7400 1.9619
78.7500 7.0204
78.7600 3.8648
78.7700 6.3907
78.7800 3.6974
78.7900 8.8076
78.8000 2.7166
78.8100 4.0342
78.8200 2.1584
78.8300 4.4373
78.8400 6.5881
78.8500 9.8125
78.8600 6.5426
78.8700 4.9804
78.8800 5.5451
78.8900 7.5205
78.9000 5.8454
78.9100 7.3943
78.9200 7.9723
78.9300 15.0486
78.9400 7.6095
78.9500 9.8678
78.9600 9.8605
78.9700 6.8060
78.9800 2.7726
78.9900 4.2638
79.0000 3.1172
79.0100 6.2518
79.0200 4.9740
79.0300 4.4508
79.0400 5.3378
79.0500 3.4175
79.0600 3.7811
79.0700 6.6680
79.0800 7.5766
79.0900 5.6071
79.1000 7.1936
79.1100 7.6376
79.1200 5.3418
79.1300 10.9056
79.1400 11.5396
79.1500 11.6477
79.1600 6.5009
79.1700 8.8093
79.1800 6.6484
79.1900 10.3443
79.2000 5.9879
79.2100 5.8264
79.2200 4.0659
79.2300 9.6777
79.2400 8.8160
79.2500 7.2261
79.2600 11.4084
79.2700 4.8427
79.2800 6.5151
79.2900 3.8414
79.3000 4.4066
79.3100 3.1938
79.3200 3.2012
79.3300 5.3558
79.3400 3.8612
79.3500 4.2596
79.3600 3.3763
79.3700 9.3173
79.3800 6.9560
79.3900 6.9782
79.4000 7.4531
79.4100 6.0949
79.4200 4.6870
79.4300 7.4629
79.4400 4.6687
79.4500 10.7583
79.4600 6.6428
79.4700 15.6958
79.4800 6.5075
79.4900 3.9920
79.5000 5.2182
79.5100 5.0175
79.5200 3.8426
79.5300 3.6594
79.5400 9.2457
79.5500 9.8095
79.5600 6.2778
79.5700 6.2214
79.5800 5.3321
79.5900 6.1949
79.6000 3.8862
79.6100 4.9415
79.6200 7.8888
79.6300 7.9628
79.6400 3.2501
79.6500 3.2642
79.6600 5.4901
79.6700 5.1381
79.6800 4.9097
79.6900 4.1593
79.7000 4.7448
79.7100 2.5305
79.7200 3.8457
79.7300 5.4803
79.7400 4.6093
79.7500 3.7436
79.7600 7.6337
79.7700 5.3595
79.7800 4.2076
79.7900 6.7918
79.8000 5.0610
79.8100 5.6337
79.8200 6.0779
79.8300 2.6122
79.8400 5.1929
79.8500 4.5272
79.8600 3.9001
79.8700 3.9431
79.8800 6.1942
79.8900 5.2114
79.9000 4.5746
79.9100 4.0427
79.9200 7.3677
79.9300 5.2556
79.9400 9.1174
79.9500 4.8628
79.9600 5.2031
79.9700 8.8023
79.9800 6.1420
79.9900 4.1025
80.0000 7.2177
80.0100 3.5759
80.0200 9.8675
80.0300 7.4646
80.0400 7.1755
80.0500 6.4349
80.0600 8.1414
80.0700 4.5362
80.0800 5.9653
80.0900 5.4066
80.1000 3.1796
80.1100 5.0096
80.1200 5.3223
80.1300 7.8867
80.1400 11.2872
80.1500 7.2657
80.1600 10.0097
80.1700 7.0583
80.1800 5.0128
80.1900 4.5208
80.2000 2.4146
80.2100 9.1111
80.2200 4.6338
80.2300 10.3113
80.2400 7.2346
80.2500 7.1036
80.2600 6.3776
80.2700 7.7120
80.2800 7.6993
80.2900 4.0276
80.3000 4.3983
80.3100 5.0138
80.3200 4.5915
80.3300 8.0272
80.3400 12.1598
80.3500 7.0716
80.3600 8.5610
80.3700 2.3714
80.3800 7.7211
80.3900 5.8948
80.4000 3.3566
80.4100 10.7461
80.4200 7.1162
80.4300 11.4953
80.4400 8.0400
80.4500 12.7562
80.4600 6.3974
80.4700 9.0721
80.4800 5.5628
80.4900 4.5804
80.5000 4.5305
80.5100 8.2935
80.5200 5.0130
80.5300 4.9587
80.5400 7.5334
80.5500 9.9320
80.5600 6.4614
80.5700 4.4194
80.5800 7.1133
80.5900 7.0623
80.6000 10.0851
80.6100 3.0991
80.6200 6.0751
80.6300 4.9080
80.6400 1.4667
80.6500 5.7269
80.6600 5.2550
80.6700 6.6920
80.6800 6.3247
80.6900 5.8800
80.7000 9.7245
80.7100 5.7769
80.7200 10.3536
80.7300 3.2997
80.7400 5.2989
80.7500 5.9186
80.7600 7.5335
80.7700 8.3485
80.7800 8.1283
80.7900 5.4772
80.8000 8.7320
80.8100 4.3966
80.8200 7.4430
80.8300 6.5635
80.8400 4.3311
80.8500 1.4152
80.8600 12.3317
80.8700 9.5367
80.8800 7.2636
80.8900 9.1339
80.9000 5.5806
80.9100 5.1180
80.9200 6.2315
80.9300 0.5448
80.9400 5.0388
80.9500 1.3542
80.9600 9.3514
80.9700 8.1331
80.9800 5.7769
80.9900 4.1254
81.0000 10.1156
81.0100 7.1539
81.0200 8.0817
81.0300 5.1305
81.0400 6.0087
81.0500 8.3248
81.0600 8.2821
81.0700 9.0131
81.0800 12.6981
81.0900 3.9302
81.1000 8.9603
81.1100 6.5515
81.1200 8.1185
81.1300 5.9647
81.1400 5.8159
81.1500 8.3714
81.1600 17.0549
81.1700 1.6869
81.1800 8.6247
81.1900 6.3293
81.2000 6.4191
81.2100 5.1665
81.2200 4.9367
81.2300 3.2028
81.2400 7.9651
81.2500 6.6750
81.2600 5.3211
81.2700 5.0909
81.2800 2.2045
81.2900 6.0850
81.3000 7.5847
81.3100 5.1711
81.3200 8.3578
81.3300 5.3401
81.3400 7.2270
81.3500 4.3566
81.3600 4.3055
81.3700 4.1674
81.3800 4.1660
81.3900 8.4436
81.4000 8.3093
81.4100 3.7985
81.4200 4.8940
81.4300 6.2249
81.4400 5.1405
81.4500 4.0775
81.4600 6.0402
81.4700 6.2730
81.4800 6.6271
81.4900 5.8978
81.5000 7.0865
81.5100 7.6824
81.5200 7.3868
81.5300 7.7967
81.5400 7.8051
81.5500 7.9646
81.5600 6.7391
81.5700 7.3770
81.5800 4.2214
81.5900 3.4126
81.6000 3.4277
81.6100 2.7386
81.6200 4.9577
81.6300 7.7627
81.6400 4.1710
81.6500 3.1847
81.6600 11.4997
81.6700 8.3428
81.6800 3.2874
81.6900 6.0636
81.7000 11.3219
81.7100 9.2895
81.7200 15.6128
81.7300 6.3867
81.7400 7.4331
81.7500 6.0979
81.7600 9.5292
81.7700 3.3853
81.7800 3.1249
81.7900 8.7712
81.8000 8.1719
81.8100 10.1967
81.8200 5.7412
81.8300 7.1904
81.8400 3.8626
81.8500 12.2138
81.8600 13.7710
81.8700 11.4233
81.8800 15.1420
81.8900 16.8733
81.9000 11.3899
81.9100 10.0778
81.9200 10.9528
81.9300 12.5889
81.9400 20.7004
81.9500 17.2142
81.9600 14.7969
81.9700 25.6319
81.9800 24.7962
81.9900 21.1955
82.0000 27.0485
82.0100 29.8509
82.0200 29.2015
82.0300 33.3058
82.0400 33.6361
82.0500 34.3685
82.0600 39.4254
82.0700 39.5639
82.0800 38.2699
82.0900 36.8321
82.1000 52.9611
82.1100 54.1525
82.1200 55.9928
82.1300 42.2924
82.1400 40.4058
82.1500 47.7976
82.1600 36.8055
82.1700 37.4725
82.1800 30.5331
82.1900 35.5695
82.2000 22.4014
82.2100 23.1880
82.2200 25.3802
82.2300 23.2326
82.2400 24.5831
82.2500 16.5480
82.2600 24.0343
82.2700 13.5793
82.2800 18.8972
82.2900 16.1063
82.3000 15.0627
82.3100 15.2719
82.3200 15.3635
82.3300 8.4721
82.3400 7.7843
82.3500 11.9925
82.3600 18.0929
82.3700 15.2090
82.3800 7.5952
82.3900 17.1330
82.4000 7.7418
82.4100 14.5495
82.4200 15.6297
82.4300 9.5815
82.4400 14.0814
82.4500 7.9426
82.4600 11.0902
82.4700 7.8815
82.4800 8.9702
82.4900 9.2650
82.5000 6.1572
82.5100 7.6185
82.5200 6.3366
82.5300 5.3287
82.5400 15.1419
82.5500 3.5143
82.5600 7.6168
82.5700 8.2862
82.5800 6.1692
82.5900 3.8833
82.6000 6.0616
82.6100 9.3578
82.6200 5.0609
82.6300 7.3893
82.6400 6.5507
82.6500 7.4366
82.6600 7.2643
82.6700 7.5606
82.6800 5.3391
82.6900 6.9464
82.7000 9.2265
82.7100 4.9923
82.7200 5.6803
82.7300 6.7327
82.7400 7.8118
82.7500 8.1693
82.7600 4.3079
82.7700 7.6770
82.7800 6.1783
82.7900 8.5175
82.8000 7.3105
82.8100 6.9574
82.8200 4.4391
82.8300 3.0425
82.8400 10.7514
82.8500 6.2224
82.8600 8.2338
82.8700 5.3349
82.8800 8.2965
82.8900 9.1182
82.9000 5.1793
82.9100 6.4395
82.9200 8.7027
82.9300 4.4719
82.9400 5.2518
82.9500 8.0691
82.9600 4.1878
82.9700 7.1006
82.9800 4.4187
82.9900 7.2800
83.0000 3.9380
83.0100 5.1858
83.0200 5.7225
83.0300 5.4408
83.0400 5.3271
83.0500 4.7631
83.0600 3.3691
83.0700 6.0488
83.0800 2.4556
83.0900 8.7748
83.1000 5.9126
83.1100 6.0318
83.1200 2.5712
83.1300 0.4086
83.1400 2.3578
83.1500 10.2054
83.1600 8.5824
83.1700 1.3087
83.1800 2.4803
83.1900 8.9022
83.2000 3.8655
83.2100 4.5981
83.2200 7.2146
83.2300 7.4252
83.2400 4.6318
83.2500 9.9428
83.2600 6.8125
83.2700 5.4892
83.2800 3.0178
83.2900 2.8944
83.3000 2.7968
83.3100 5.7238
83.3200 7.3922
83.3300 3.1492
83.3400 2.4860
83.3500 3.8250
83.3600 2.1574
83.3700 2.3143
83.3800 7.2702
83.3900 3.9646
83.4000 2.3993
83.4100 7.8408
83.4200 2.6526
83.4300 10.8831
83.4400 3.1847
83.4500 11.1932
83.4600 7.7204
83.4700 9.0838
83.4800 7.4620
83.4900 11.4413
83.5000 2.4824
83.5100 8.2979
83.5200 1.7895
83.5300 8.7480
83.5400 2.6761
83.5500 8.7401
83.5600 5.6121
83.5700 6.6430
83.5800 4.7883
83.5900 5.3475
83.6000 3.6432
83.6100 6.1058
83.6200 6.9076
83.6300 8.5748
83.6400 6.4570
83.6500 8.8136
83.6600 5.9618
83.6700 6.8529
83.6800 5.3229
83.6900 4.2497
83.7000 5.3077
83.7100 9.4692
83.7200 8.8944
83.7300 7.6453
83.7400 6.4047
83.7500 7.0210
83.7600 4.6668
83.7700 4.3104
83.7800 8.3261
83.7900 3.2719
83.8000 6.1497
83.8100 4.0458
83.8200 3.6259
83.8300 6.6897
83.8400 3.4878
83.8500 3.8609
83.8600 4.5021
83.8700 8.0082
83.8800 3.5028
83.8900 4.7201
83.9000 7.4085
83.9100 3.3315
83.9200 6.8793
83.9300 4.5234
83.9400 6.4314
83.9500 3.3928
83.9600 5.5494
83.9700 5.8408
83.9800 13.0049
83.9900 8.2704
84.0000 11.8914
84.0100 4.0314
84.0200 7.5807
84.0300 7.8265
84.0400 10.6569
84.0500 3.8663
84.0600 3.7002
84.0700 8.5370
84.0800 4.0491
84.0900 7.7095
84.1000 4.8563
84.1100 7.9960
84.1200 11.3500
84.1300 7.3093
84.1400 6.0425
84.1500 2.8105
84.1600 6.0108
84.1700 2.0803
84.1800 4.2055
84.1900 8.8771
84.2000 4.7538
84.2100 3.4869
84.2200 7.9529
84.2300 11.0172
84.2400 7.1945
84.2500 5.1680
84.2600 3.2013
84.2700 2.0486
84.2800 3.1123
84.2900 3.5142
84.3000 5.7158
84.3100 8.4207
84.3200 10.4524
84.3300 3.3959
84.3400 8.9234
84.3500 3.9230
84.3600 2.0113
84.3700 4.7822
84.3800 4.8522
84.3900 2.8250
84.4000 5.5736
84.4100 5.2258
84.4200 6.6884
84.4300 8.3686
84.4400 13.2772
84.4500 8.4172
84.4600 6.2783
84.4700 7.8684
84.4800 2.8254
84.4900 3.6669
84.5000 5.1028
84.5100 3.5639
84.5200 8.6021
84.5300 5.8365
84.5400 3.3807
84.5500 9.2372
84.5600 3.1305
84.5700 6.6731
84.5800 8.6202
84.5900 5.9595
84.6000 6.9322
84.6100 12.2644
84.6200 7.5650
84.6300 7.2418
84.6400 2.3992
84.6500 5.0478
84.6600 7.7953
84.6700 6.9622
84.6800 8.3536
84.6900 5.7744
84.7000 3.6423
84.7100 2.6836
84.7200 7.9870
84.7300 4.1916
84.7400 6.6043
84.7500 6.3184
84.7600 6.3782
84.7700 9.0431
84.7800 4.8886
84.7900 7.4479
84.8000 9.0121
84.8100 11.0873
84.8200 10.0536
84.8300 10.9535
84.8400 15.2491
84.8500 8.2755
84.8600 5.4861
84.8700 4.3097
84.8800 6.8945
84.8900 8.3334
84.9000 7.6163
84.9100 7.1404
84.9200 6.5051
84.9300 5.8749
84.9400 6.9938
84.9500 7.0422
84.9600 5.7088
84.9700 3.1819
84.9800 9.7067
84.9900 2.3267
85.0000 6.4131
85.0100 9.5952
85.0200 9.1552
85.0300 8.3673
85.0400 8.7943
85.0500 5.8798
85.0600 4.3429
85.0700 5.4655
85.0800 6.3273
85.0900 5.7396
85.1000 3.3806
85.1100 7.8811
85.1200 8.4364
85.1300 4.3405
85.1400 7.1580
85.1500 3.4332
85.1600 10.1022
85.1700 8.3503
85.1800 5.3475
85.1900 7.0917
85.2000 4.1084
85.2100 6.7300
85.2200 5.0489
85.2300 7.5146
85.2400 1.5197
85.2500 3.2633
85.2600 7.0000
85.2700 6.4892
85.2800 7.8994
85.2900 2.2930
85.3000 2.3341
85.3100 3.2822
85.3200 6.1996
85.3300 9.5705
85.3400 4.8148
85.3500 5.5770
85.3600 3.4465
85.3700 4.8313
85.3800 5.0794
85.3900 4.2706
85.4000 6.2020
85.4100 2.7214
85.4200 3.0460
85.4300 7.7627
85.4400 2.1653
85.4500 3.5574
85.4600 2.1437
85.4700 5.2641
85.4800 6.1950
85.4900 2.6853
85.5000 4.9875
85.5100 4.7465
85.5200 2.6265
85.5300 6.8647
85.5400 9.7735
85.5500 6.8092
85.5600 7.5765
85.5700 5.0018
85.5800 9.5636
85.5900 6.0807
85.6000 5.0654
85.6100 4.3769
85.6200 11.9402
85.6300 4.4194
85.6400 6.2995
85.6500 5.1931
85.6600 5.4488
85.6700 7.2612
85.6800 12.1501
85.6900 5.4153
85.7000 5.5088
85.7100 6.4385
85.7200 4.9932
85.7300 4.1250
85.7400 4.7944
85.7500 6.5494
85.7600 3.0517
85.7700 11.2683
85.7800 7.2007
85.7900 11.6831
85.8000 8.7531
85.8100 10.4569
85.8200 8.4728
85.8300 5.9540
85.8400 10.1047
85.8500 4.7454
85.8600 4.7335
85.8700 7.5252
85.8800 8.0122
85.8900 9.6015
85.9000 9.6556
85.9100 7.2775
85.9200 2.2796
85.9300 11.0244
85.9400 5.2476
85.9500 8.7985
85.9600 5.7844
85.9700 6.1363
85.9800 4.0449
85.9900 6.8178
86.0000 5.1109
86.0100 5.1608
86.0200 5.4995
86.0300 7.2786
86.0400 2.9630
86.0500 8.6134
86.0600 9.5896
86.0700 5.8053
86.0800 4.3169
86.0900 5.7872
86.1000 5.1048
86.1100 4.8868
86.1200 5.9163
86.1300 9.2987
86.1400 6.1306
86.1500 2.6594
86.1600 6.8564
86.1700 4.0832
86.1800 8.0598
86.1900 5.9273
86.2000 8.6870
86.2100 6.8749
86.2200 9.5776
86.2300 3.4971
86.2400 7.2036
86.2500 6.3867
86.2600 2.1031
86.2700 6.1094
86.2800 5.4866
86.2900 4.2412
86.3000 5.0606
86.3100 3.1208
86.3200 8.4008
86.3300 5.6741
86.3400 8.9480
86.3500 2.4068
86.3600 6.6617
86.3700 1.2242
86.3800 3.9700
86.3900 2.5287
86.4000 6.6914
86.4100 1.0888
86.4200 4.1524
86.4300 5.7540
86.4400 3.7449
86.4500 9.7706
86.4600 6.8485
86.4700 4.4416
86.4800 9.6696
86.4900 6.0675
86.5000 5.3736
86.5100 9.8520
86.5200 11.4642
86.5300 9.8671
86.5400 4.4111
86.5500 7.5522
86.5600 4.9769
86.5700 3.8248
86.5800 4.6710
86.5900 7.9758
86.6000 6.2335
86.6100 6.8133
86.6200 3.9136
86.6300 4.5106
86.6400 5.3763
86.6500 4.5071
86.6600 8.0091
86.6700 9.9212
86.6800 4.1656
86.6900 3.0443
86.7000 5.0950
86.7100 3.6044
86.7200 8.5359
86.7300 4.1900
86.7400 6.9070
86.7500 8.8437
86.7600 4.6189
86.7700 5.1431
86.7800 6.0895
86.7900 6.7571
86.8000 9.7394
86.8100 4.7139
86.8200 5.2163
86.8300 3.3115
86.8400 5.0401
86.8500 5.1545
86.8600 9.0503
86.8700 4.8718
86.8800 4.6216
86.8900 10.4400
86.9000 7.3260
86.9100 17.7516
86.9200 5.8632
86.9300 16.0645
86.9400 11.9562
86.9500 12.0318
86.9600 3.2593
86.9700 9.7378
86.9800 5.2109
86.9900 13.2999
87.0000 7.4465
87.0100 4.4799
87.0200 7.5262
87.0300 9.5384
87.0400 6.1481
87.0500 6.6995
87.0600 3.6375
87.0700 10.5904
87.0800 5.3329
87.0900 5.0513
87.1000 2.2452
87.1100 11.2226
87.1200 8.1317
87.1300 6.5972
87.1400 2.8955
87.1500 3.6380
87.1600 4.5287
87.1700 7.4739
87.1800 10.9274
87.1900 8.1961
87.2000 3.6664
87.2100 6.8471
87.2200 5.5380
87.2300 5.7682
87.2400 7.4555
87.2500 3.7243
87.2600 5.8915
87.2700 4.5321
87.2800 8.1889
87.2900 6.4902
87.3000 6.2407
87.3100 6.3748
87.3200 6.5830
87.3300 4.4913
87.3400 3.0342
87.3500 3.7461
87.3600 5.2882
87.3700 11.0056
87.3800 5.5109
87.3900 3.6831
87.4000 11.0389
87.4100 6.5222
87.4200 3.4380
87.4300 5.9713
87.4400 3.9685
87.4500 6.5575
87.4600 6.2091
87.4700 1.5719
87.4800 3.2690
87.4900 7.3499
87.5000 3.6396
87.5100 2.0773
87.5200 2.2370
87.5300 8.0598
87.5400 6.1790
87.5500 4.8348
87.5600 10.6754
87.5700 9.9955
87.5800 4.5341
87.5900 7.2285
87.6000 5.3317
87.6100 7.7007
87.6200 5.1836
87.6300 1.3952
87.6400 7.4227
87.6500 9.9470
87.6600 4.3381
87.6700 5.7167
87.6800 3.9298
87.6900 4.4422
87.7000 8.6228
87.7100 5.5546
87.7200 5.2136
87.7300 4.4484
87.7400 6.9332
87.7500 3.3117
87.7600 5.1039
87.7700 4.1002
87.7800 6.0014
87.7900 7.4609
87.8000 5.1354
87.8100 10.2546
87.8200 4.1162
87.8300 11.7069
87.8400 2.3848
87.8500 13.7320
87.8600 7.7819
87.8700 13.3002
87.8800 3.8059
87.8900 7.5338
87.9000 8.8360
87.9100 6.0977
87.9200 8.1655
87.9300 6.4908
87.9400 4.2932
87.9500 9.9556
87.9600 6.1393
87.9700 9.7030
87.9800 8.0943
87.9900 10.5083
88.0000 8.8784
88.0100 7.5273
88.0200 5.5893
88.0300 2.0224
88.0400 6.2169
88.0500 4.3945
88.0600 5.9324
88.0700 9.8019
88.0800 12.9264
88.0900 7.1012
88.1000 7.6991
88.1100 8.3449
88.1200 7.5937
88.1300 9.7114
88.1400 8.1052
88.1500 13.0275
88.1600 7.3661
88.1700 13.2594
88.1800 7.2256
88.1900 7.1512
88.2000 4.7835
88.2100 4.7128
88.2200 6.0460
88.2300 4.0512
88.2400 2.8808
88.2500 6.2069
88.2600 3.1006
88.2700 1.2740
88.2800 5.1120
88.2900 9.2979
88.3000 6.0638
88.3100 4.9440
88.3200 2.6269
88.3300 5.5746
88.3400 7.4474
88.3500 8.1742
88.3600 4.3632
88.3700 9.4559
88.3800 6.6174
88.3900 5.9013
88.4000 1.8569
88.4100 8.1142
88.4200 10.1002
88.4300 7.6949
88.4400 6.1816
88.4500 10.8167
88.4600 9.7270
88.4700 9.8373
88.4800 9.6472
88.4900 5.1733
88.5000 7.8480
88.5100 5.5136
88.5200 4.8523
88.5300 6.6521
88.5400 7.0958
88.5500 11.0503
88.5600 6.8890
88.5700 12.3708
88.5800 5.1433
88.5900 6.3142
88.6000 5.8108
88.6100 7.4881
88.6200 6.0447
88.6300 4.8007
88.6400 5.9141
88.6500 5.9913
88.6600 4.6889
88.6700 1.6743
88.6800 5.1355
88.6900 6.2123
88.7000 4.8921
88.7100 5.4678
88.7200 6.7037
88.7300 9.7953
88.7400 5.1056
88.7500 3.9698
88.7600 6.9403
88.7700 4.9572
88.7800 4.3593
88.7900 6.2583
88.8000 5.8844
88.8100 3.2628
88.8200 8.9503
88.8300 6.0754
88.8400 3.6109
88.8500 7.8548
88.8600 9.6566
88.8700 12.0811
88.8800 2.4660
88.8900 5.2241
88.9000 8.1972
88.9100 8.5527
88.9200 10.8202
88.9300 8.8308
88.9400 5.7587
88.9500 6.7776
88.9600 3.7928
88.9700 5.6622
88.9800 6.3165
88.9900 1.1968
89.0000 4.3336
89.0100 5.3567
89.0200 3.0561
89.0300 4.7249
89.0400 2.4531
89.0500 6.8049
89.0600 5.8301
89.0700 4.9083
89.0800 7.3022
89.0900 4.3252
89.1000 10.2880
89.1100 6.3526
89.1200 5.6240
89.1300 5.1691
89.1400 10.3481
89.1500 5.8551
89.1600 3.2590
89.1700 4.5078
89.1800 4.1575
89.1900 6.0494
89.2000 6.1847
89.2100 10.2780
89.2200 9.8948
89.2300 10.9461
89.2400 7.8208
89.2500 10.6944
89.2600 4.0638
89.2700 12.6899
89.2800 3.1531
89.2900 11.2893
89.3000 5.4562
89.3100 5.8406
89.3200 6.1652
89.3300 4.8326
89.3400 4.6482
89.3500 6.6945
89.3600 5.3258
89.3700 9.7100
89.3800 6.8104
89.3900 8.8131
89.4000 1.3433
89.4100 5.0560
89.4200 7.3781
89.4300 3.4475
89.4400 8.1736
89.4500 4.9242
89.4600 10.1835
89.4700 11.3330
89.4800 4.5549
89.4900 10.7533
89.5000 4.5636
89.5100 11.6138
89.5200 4.2524
89.5300 4.4861
89.5400 9.3293
89.5500 6.1848
89.5600 6.4201
89.5700 3.6728
89.5800 3.1900
89.5900 2.8990
89.6000 7.2099
89.6100 10.9200
89.6200 9.3779
89.6300 4.7738
89.6400 3.1712
89.6500 6.1687
89.6600 6.5240
89.6700 9.0408
89.6800 7.8663
89.6900 9.5918
89.7000 10.1372
89.7100 8.0538
89.7200 13.0148
89.7300 7.6739
89.7400 6.2711
89.7500 7.1222
89.7600 2.2945
89.7700 3.9151
89.7800 7.4621
89.7900 6.2315
89.8000 6.5200
89.8100 4.8822
89.8200 3.3976
89.8300 5.0103
89.8400 7.8377
89.8500 7.1887
89.8600 3.4045
89.8700 6.7589
89.8800 5.4526
89.8900 2.3114
89.9000 3.0743
89.9100 9.7377
89.9200 3.5810
89.9300 5.5849
89.9400 9.1044
89.9500 6.4189
89.9600 4.0013
89.9700 4.3212
89.9800 4.2464
89.9900 7.7054
90.0000 6.7524
90.0100 2.9954
90.0200 1.5086
90.0300 4.1723
90.0400 3.1161
90.0500 9.1422
90.0600 8.6563
90.0700 10.0428
90.0800 8.3267
90.0900 7.1697
90.1000 5.1261
90.1100 5.0903
90.1200 2.7300
90.1300 5.5683
90.1400 2.1240
90.1500 4.3559
90.1600 6.1529
90.1700 4.6055
90.1800 6.1495
90.1900 2.6858
90.2000 8.2156
90.2100 6.4121
90.2200 5.9084
90.2300 6.3444
90.2400 4.7595
90.2500 3.2493
90.2600 4.2423
90.2700 6.2795
90.2800 5.0392
90.2900 3.8090
90.3000 6.5051
90.3100 8.9903
90.3200 9.2784
90.3300 6.8042
90.3400 2.3622
90.3500 3.5416
90.3600 5.0325
90.3700 5.3336
90.3800 6.3196
90.3900 5.7179
90.4000 8.6179
90.4100 5.9137
90.4200 4.8946
90.4300 2.8355
90.4400 4.3635
90.4500 8.2275
90.4600 3.0037
90.4700 6.8520
90.4800 6.3750
90.4900 9.9811
90.5000 5.5799
90.5100 12.3169
90.5200 6.1470
90.5300 11.1720
90.5400 6.1202
90.5500 5.0866
90.5600 7.1598
90.5700 4.7547
90.5800 12.1215
90.5900 7.7958
90.6000 7.3972
90.6100 5.4475
90.6200 7.3975
90.6300 7.0624
90.6400 4.8326
90.6500 7.0358
90.6600 9.5860
90.6700 5.2581
90.6800 7.7573
90.6900 1.3196
90.7000 6.9253
90.7100 7.1353
90.7200 2.5262
90.7300 5.1592
90.7400 4.2100
90.7500 5.8390
90.7600 6.2632
90.7700 8.4910
90.7800 0.8519
90.7900 6.9424
90.8000 9.1667
90.8100 3.4606
90.8200 7.9613
90.8300 6.5469
90.8400 8.6727
90.8500 5.6087
90.8600 2.6476
90.8700 9.7213
90.8800 11.5773
90.8900 12.5167
90.9000 4.5807
90.9100 7.4439
90.9200 7.7266
90.9300 10.2917
90.9400 3.0821
90.9500 6.0476
90.9600 4.1740
90.9700 7.5138
90.9800 6.3961
90.9900 9.2590
91.0000 12.2064
91.0100 4.1669
91.0200 3.0600
91.0300 2.3309
91.0400 5.2191
91.0500 4.5059
91.0600 5.9253
91.0700 7.1323
91.0800 6.2614
91.0900 3.2898
91.1000 5.2151
91.1100 5.9619
91.1200 6.4150
91.1300 6.0507
91.1400 7.7308
91.1500 6.0330
91.1600 6.9264
91.1700 6.1961
91.1800 5.0933
91.1900 5.0089
91.2000 6.5277
91.2100 3.3571
91.2200 4.3009
91.2300 4.3673
91.2400 6.4454
91.2500 7.1199
91.2600 3.5164
91.2700 3.6898
91.2800 8.1026
91.2900 7.2150
91.3000 5.6322
91.3100 7.2371
91.3200 2.2973
91.3300 7.3056
91.3400 8.0699
91.3500 6.9943
91.3600 6.1277
91.3700 5.3666
91.3800 6.8480
91.3900 4.9252
91.4000 3.0936
91.4100 8.1263
91.4200 6.1107
91.4300 8.1559
91.4400 6.1925
91.4500 3.4120
91.4600 7.5280
91.4700 3.8560
91.4800 4.2979
91.4900 6.9323
91.5000 7.1672
91.5100 5.6235
91.5200 9.0036
91.5300 6.4851
91.5400 9.2253
91.5500 8.8890
91.5600 3.2188
91.5700 6.8842
91.5800 5.2323
91.5900 2.0795
91.6000 3.3178
91.6100 6.0678
91.6200 5.8881
91.6300 6.8639
91.6400 7.4405
91.6500 3.2859
91.6600 6.6540
91.6700 3.4469
91.6800 5.5759
91.6900 6.3585
91.7000 5.2891
91.7100 7.8881
91.7200 6.3825
91.7300 6.5011
91.7400 3.3165
91.7500 4.0411
91.7600 7.7016
91.7700 6.8842
91.7800 3.8590
91.7900 4.6027
91.8000 5.0732
91.8100 3.6826
91.8200 2.7070
91.8300 5.9710
91.8400 7.4341
91.8500 4.3928
91.8600 6.1734
91.8700 4.2941
91.8800 6.8825
91.8900 5.8730
91.9000 10.3207
91.9100 9.7378
91.9200 7.6273
91.9300 7.2522
91.9400 5.8312
91.9500 7.3055
91.9600 3.1694
91.9700 3.0781
91.9800 5.2615
91.9900 9.3744
92.0000 4.5349
92.0100 2.2264
92.0200 9.9231
92.0300 3.4578
92.0400 3.9007
92.0500 4.0452
92.0600 5.2486
92.0700 5.2691
92.0800 5.1987
92.0900 5.8041
92.1000 4.4682
92.1100 7.0574
92.1200 7.1380
92.1300 7.4976
92.1400 6.0406
92.1500 2.8442
92.1600 3.2661
92.1700 8.0707
92.1800 10.1466
92.1900 6.7772
92.2000 10.7027
92.2100 6.4621
92.2200 7.6710
92.2300 9.3682
92.2400 7.0005
92.2500 13.7208
92.2600 4.3421
92.2700 4.4404
92.2800 4.1998
92.2900 8.2530
92.3000 4.1855
92.3100 5.3635
92.3200 7.4236
92.3300 13.0021
92.3400 12.6849
92.3500 7.5377
92.3600 10.6920
92.3700 6.0888
92.3800 8.2118
92.3900 3.5853
92.4000 2.4908
92.4100 8.4968
92.4200 3.1488
92.4300 6.5826
92.4400 5.3351
92.4500 4.0966
92.4600 4.2829
92.4700 6.3225
92.4800 7.3696
92.4900 10.0490
92.5000 3.0162
92.5100 6.8224
92.5200 2.1507
92.5300 4.8834
92.5400 7.1271
92.5500 8.1943
92.5600 7.3002
92.5700 5.2388
92.5800 5.3643
92.5900 8.6530
92.6000 1.9786
92.6100 5.3140
92.6200 5.3966
92.6300 5.2854
92.6400 6.0032
92.6500 5.4488
92.6600 6.8623
92.6700 4.2343
92.6800 6.2318
92.6900 10.8135
92.7000 1.5484
92.7100 11.3178
92.7200 3.4018
92.7300 8.9025
92.7400 7.4818
92.7500 14.5769
92.7600 13.5598
92.7700 8.0732
92.7800 10.2514
92.7900 8.5302
92.8000 6.3286
92.8100 11.2278
92.8200 6.5269
92.8300 12.8491
92.8400 6.0519
92.8500 13.6003
92.8600 6.8614
92.8700 10.2226
92.8800 6.2088
92.8900 8.6934
92.9000 5.7259
92.9100 10.1325
92.9200 2.8569
92.9300 10.3697
92.9400 9.9198
92.9500 4.7029
92.9600 4.2044
92.9700 2.6056
92.9800 5.8599
92.9900 3.9377
93.0000 5.7975
93.0100 3.6318
93.0200 10.4232
93.0300 8.1594
93.0400 11.8716
93.0500 6.5039
93.0600 11.7411
93.0700 10.0698
93.0800 12.4456
93.0900 10.0667
93.1000 10.0949
93.1100 10.2077
93.1200 9.3196
93.1300 10.9841
93.1400 3.8917
93.1500 8.8745
93.1600 6.2114
93.1700 5.8454
93.1800 10.8187
93.1900 9.2798
93.2000 6.7571
93.2100 6.3321
93.2200 9.9655
93.2300 5.9456
93.2400 3.3386
93.2500 3.9816
93.2600 8.0954
93.2700 4.7582
93.2800 3.7810
93.2900 5.1423
93.3000 4.4981
93.3100 6.4906
93.3200 6.1199
93.3300 6.3596
93.3400 6.1969
93.3500 7.3086
93.3600 6.1874
93.3700 8.1924
93.3800 5.4713
93.3900 8.6252
93.4000 5.0588
93.4100 4.2246
93.4200 4.4439
93.4300 6.5567
93.4400 6.0396
93.4500 8.1594
93.4600 8.5891
93.4700 3.5231
93.4800 10.0508
93.4900 9.1931
93.5000 10.4800
93.5100 7.5871
93.5200 5.8269
93.5300 3.7933
93.5400 10.8302
93.5500 6.3824
93.5600 3.6218
93.5700 7.5657
93.5800 6.7510
93.5900 5.8979
93.6000 9.7634
93.6100 2.8621
93.6200 4.9863
93.6300 8.3811
93.6400 6.5083
93.6500 7.4806
93.6600 4.2769
93.6700 5.0862
93.6800 7.0331
93.6900 6.1337
93.7000 4.3831
93.7100 5.5773
93.7200 3.3536
93.7300 6.8277
93.7400 7.5610
93.7500 7.3306
93.7600 5.3060
93.7700 6.2894
93.7800 7.5182
93.7900 3.8237
93.8000 7.8519
93.8100 8.2842
93.8200 3.8740
93.8300 2.7121
93.8400 4.3073
93.8500 5.4638
93.8600 6.3532
93.8700 3.2761
93.8800 5.5824
93.8900 5.4074
93.9000 3.5546
93.9100 7.8501
93.9200 6.5805
93.9300 9.5367
93.9400 6.6015
93.9500 10.7179
93.9600 9.9959
93.9700 4.3851
93.9800 11.0723
93.9900 5.5812
94.0000 3.9554
94.0100 6.5068
94.0200 4.6903
94.0300 8.7809
94.0400 7.0449
94.0500 6.3551
94.0600 6.4435
94.0700 5.6732
94.0800 11.9254
94.0900 10.2833
94.1000 7.7723
94.1100 11.9113
94.1200 7.9341
94.1300 10.8580
94.1400 8.2607
94.1500 5.2928
94.1600 9.8625
94.1700 6.6352
94.1800 9.5773
94.1900 7.2127
94.2000 5.6933
94.2100 8.7111
94.2200 9.4820
94.2300 9.3496
94.2400 8.3256
94.2500 8.5290
94.2600 7.8167
94.2700 6.5362
94.2800 4.6638
94.2900 13.1416
94.3000 7.3627
94.3100 8.2874
94.3200 8.4369
94.3300 2.7448
94.3400 2.4321
94.3500 8.4966
94.3600 8.8922
94.3700 5.1955
94.3800 7.0555
94.3900 4.3889
94.4000 9.2682
94.4100 8.9580
94.4200 4.5561
94.4300 5.8243
94.4400 10.7917
94.4500 5.8451
94.4600 7.3412
94.4700 7.0160
94.4800 8.5132
94.4900 6.8042
94.5000 6.8165
94.5100 13.4759
94.5200 9.6179
94.5300 3.8148
94.5400 3.6030
94.5500 7.3295
94.5600 7.8007
94.5700 7.5020
94.5800 5.3129
94.5900 5.2578
94.6000 5.0449
94.6100 9.1312
94.6200 3.3529
94.6300 6.6180
94.6400 9.9168
94.6500 7.2504
94.6600 5.7757
94.6700 10.1061
94.6800 3.9190
94.6900 8.6569
94.7000 3.3245
94.7100 2.1641
94.7200 8.8187
94.7300 1.4308
94.7400 5.1643
94.7500 3.5207
94.7600 6.1716
94.7700 1.4636
94.7800 1.4097
94.7900 3.4337
94.8000 10.2025
94.8100 5.6658
94.8200 6.2671
94.8300 9.3037
94.8400 4.0244
94.8500 4.5037
94.8600 5.9874
94.8700 6.4169
94.8800 9.0719
94.8900 8.4432
94.9000 4.1879
94.9100 4.3815
94.9200 6.0524
94.9300 8.0295
94.9400 6.7298
94.9500 7.6112
94.9600 6.7904
94.9700 5.3737
94.9800 4.6380
94.9900 10.6913
95.0000 8.4580
95.0100 6.0316
95.0200 10.8576
95.0300 2.6679
95.0400 11.1693
95.0500 5.3248
95.0600 11.8992
95.0700 6.9148
95.0800 11.2910
95.0900 6.1749
95.1000 7.9371
95.1100 9.2739
95.1200 4.6724
95.1300 6.7965
95.1400 9.5273
95.1500 7.5532
95.1600 7.2146
95.1700 11.9391
95.1800 7.4740
95.1900 6.5215
95.2000 3.5696
95.2100 10.4262
95.2200 5.4306
95.2300 5.0457
95.2400 6.0728
95.2500 7.3642
95.2600 3.1950
95.2700 3.0006
95.2800 2.9209
95.2900 10.7006
95.3000 5.2827
95.3100 7.0378
95.3200 6.2380
95.3300 4.9369
95.3400 3.2705
95.3500 4.3190
95.3600 2.0066
95.3700 2.0143
95.3800 9.2716
95.3900 7.5367
95.4000 6.1170
95.4100 5.1706
95.4200 3.3951
95.4300 7.7817
95.4400 7.7221
95.4500 6.1731
95.4600 3.4354
95.4700 10.8777
95.4800 3.6460
95.4900 4.3545
95.5000 4.4683
95.5100 6.1202
95.5200 7.6277
95.5300 6.6965
95.5400 5.9585
95.5500 3.0374
95.5600 13.1708
95.5700 5.7401
95.5800 5.0866
95.5900 3.4220
95.6000 4.2783
95.6100 5.9121
95.6200 8.0885
95.6300 10.8830
95.6400 10.2156
95.6500 7.8806
95.6600 11.4012
95.6700 5.5158
95.6800 10.7175
95.6900 5.6509
95.7000 5.2229
95.7100 8.3118
95.7200 6.3639
95.7300 11.0110
95.7400 6.6164
95.7500 13.4399
95.7600 4.1036
95.7700 12.1560
95.7800 7.4672
95.7900 9.9899
95.8000 5.0012
95.8100 4.4951
95.8200 11.2462
95.8300 8.8851
95.8400 4.4640
95.8500 6.3419
95.8600 7.2093
95.8700 4.5561
95.8800 6.9317
95.8900 7.1140
95.9000 3.9821
95.9100 4.5985
95.9200 6.2753
95.9300 6.2729
95.9400 5.7828
95.9500 12.0263
95.9600 5.0796
95.9700 4.2308
95.9800 9.9883
95.9900 8.3810
96.0000 6.2149
96.0100 7.0650
96.0200 13.0723
96.0300 5.9977
96.0400 7.3597
96.0500 8.1033
96.0600 5.4465
96.0700 3.3439
96.0800 5.8594
96.0900 8.3392
96.1000 8.3459
96.1100 6.7940
96.1200 6.4666
96.1300 5.6570
96.1400 6.3280
96.1500 7.3308
96.1600 4.8474
96.1700 4.3978
96.1800 6.7328
96.1900 3.5211
96.2000 4.1583
96.2100 2.8296
96.2200 6.1150
96.2300 11.2537
96.2400 7.5480
96.2500 8.0778
96.2600 6.7451
96.2700 6.7763
96.2800 4.6254
96.2900 8.6094
96.3000 6.4821
96.3100 7.0041
96.3200 1.4908
96.3300 10.3318
96.3400 5.3492
96.3500 9.0098
96.3600 9.2037
96.3700 10.4329
96.3800 6.8291
96.3900 12.2448
96.4000 4.6787
96.4100 6.1573
96.4200 5.0056
96.4300 10.5465
96.4400 5.5622
96.4500 8.9389
96.4600 5.2990
96.4700 10.7387
96.4800 3.7495
96.4900 11.7606
96.5000 6.7432
96.5100 3.6511
96.5200 4.1061
96.5300 6.4962
96.5400 8.6377
96.5500 5.8224
96.5600 4.1701
96.5700 3.1452
96.5800 4.0071
96.5900 5.6880
96.6000 6.3501
96.6100 2.4265
96.6200 5.1820
96.6300 8.1828
96.6400 6.0365
96.6500 7.2936
96.6600 5.6081
96.6700 6.8982
96.6800 10.9614
96.6900 7.4663
96.7000 6.9634
96.7100 6.9954
96.7200 5.2558
96.7300 2.2534
96.7400 5.2511
96.7500 5.7779
96.7600 2.3657
96.7700 9.8325
96.7800 4.1126
96.7900 10.3299
96.8000 14.3161
96.8100 10.4404
96.8200 9.6822
96.8300 10.1654
96.8400 7.8899
96.8500 12.5482
96.8600 2.0233
96.8700 10.4212
96.8800 7.4215
96.8900 6.3523
96.9000 1.9667
96.9100 7.9483
96.9200 2.7953
96.9300 3.9000
96.9400 8.0870
96.9500 5.3342
96.9600 5.8088
96.9700 1.5253
96.9800 3.1777
96.9900 7.9567
97.0000 3.1678
97.0100 2.5985
97.0200 5.5213
97.0300 5.3368
97.0400 9.4884
97.0500 9.5581
97.0600 7.2585
97.0700 11.9489
97.0800 6.9794
97.0900 5.6983
97.1000 5.0838
97.1100 3.5045
97.1200 10.6825
97.1300 4.6360
97.1400 4.8906
97.1500 5.6456
97.1600 3.0766
97.1700 7.2863
97.1800 7.0040
97.1900 6.1395
97.2000 3.5836
97.2100 2.6438
97.2200 5.7904
97.2300 4.6340
97.2400 3.0936
97.2500 6.0770
97.2600 8.3610
97.2700 7.2860
97.2800 5.6780
97.2900 8.7055
97.3000 6.6927
97.3100 5.6191
97.3200 3.5549
97.3300 8.6661
97.3400 8.4354
97.3500 11.2278
97.3600 6.0531
97.3700 5.1368
97.3800 4.8295
97.3900 8.5162
97.4000 5.2156
97.4100 4.3130
97.4200 7.3829
97.4300 0.8918
97.4400 3.0021
97.4500 6.0807
97.4600 13.0489
97.4700 5.6886
97.4800 6.2578
97.4900 4.2086
97.5000 7.5893
97.5100 3.7950
97.5200 3.6922
97.5300 4.6696
97.5400 9.9282
97.5500 4.3047
97.5600 5.0012
97.5700 4.4988
97.5800 6.1014
97.5900 6.9728
97.6000 5.5883
97.6100 6.4417
97.6200 5.7299
97.6300 1.5976
97.6400 4.5921
97.6500 3.1400
97.6600 8.4753
97.6700 7.6768
97.6800 4.5661
97.6900 7.3943
97.7000 3.6548
97.7100 4.4959
97.7200 7.7490
97.7300 6.5338
97.7400 7.0610
97.7500 5.1287
97.7600 5.8334
97.7700 8.0935
97.7800 5.3572
97.7900 9.2899
97.8000 5.9560
97.8100 6.9290
97.8200 3.6770
97.8300 4.8314
97.8400 3.1530
97.8500 7.4649
97.8600 9.6265
97.8700 3.3200
97.8800 9.0172
97.8900 7.1967
97.9000 6.3338
97.9100 9.9254
97.9200 5.0116
97.9300 3.5531
97.9400 6.9440
97.9500 7.2125
97.9600 7.1585
97.9700 3.6505
97.9800 7.9408
97.9900 4.9057
98.0000 4.1821
98.0100 8.8824
98.0200 8.7462
98.0300 4.6514
98.0400 7.1217
98.0500 1.4250
98.0600 5.8596
98.0700 4.5072
98.0800 4.4915
98.0900 10.8172
98.1000 12.2003
98.1100 12.3468
98.1200 10.8215
98.1300 8.8408
98.1400 8.1565
98.1500 5.1525
98.1600 11.6898
98.1700 8.6039
98.1800 7.9207
98.1900 4.0361
98.2000 6.0357
98.2100 9.5286
98.2200 7.2206
98.2300 9.1509
98.2400 4.0471
98.2500 6.7417
98.2600 5.3359
98.2700 7.7275
98.2800 5.0116
98.2900 3.8943
98.3000 5.1937
98.3100 3.3626
98.3200 11.1717
98.3300 5.3666
98.3400 5.6997
98.3500 4.4828
98.3600 4.7142
98.3700 4.2638
98.3800 7.4883
98.3900 9.8899
98.4000 10.3017
98.4100 7.9880
98.4200 15.0253
98.4300 5.6978
98.4400 5.8497
98.4500 7.6194
98.4600 17.7745
98.4700 9.1308
98.4800 10.1568
98.4900 11.6303
98.5000 11.7817
98.5100 12.6076
98.5200 10.6188
98.5300 20.0271
98.5400 12.3712
98.5500 24.3324
98.5600 15.6913
98.5700 23.3602
98.5800 26.2848
98.5900 26.4915
98.6000 29.4194
98.6100 20.9986
98.6200 19.7115
98.6300 16.4666
98.6400 18.2429
98.6500 15.5411
98.6600 27.0910
98.6700 21.4677
98.6800 21.6091
98.6900 27.5591
98.7000 26.1905
98.7100 19.9836
98.7200 21.6578
98.7300 21.7619
98.7400 12.3163
98.7500 18.6331
98.7600 17.7943
98.7700 20.4766
98.7800 15.9732
98.7900 12.4732
98.8000 14.1586
98.8100 14.9027
98.8200 14.2837
98.8300 11.7499
98.8400 16.8463
98.8500 16.3024
98.8600 6.0083
98.8700 11.3304
98.8800 11.4902
98.8900 14.8162
98.9000 6.8654
98.9100 3.8068
98.9200 10.6930
98.9300 5.9200
98.9400 12.7391
98.9500 7.3823
98.9600 16.5801
98.9700 10.0751
98.9800 11.2560
98.9900 3.0399
99.0000 20.9066
99.0100 7.3705
99.0200 14.9484
99.0300 7.4216
99.0400 6.0553
99.0500 6.2121
99.0600 6.2336
99.0700 7.1272
99.0800 8.0334
99.0900 5.1376
99.1000 6.6357
99.1100 7.6508
99.1200 6.0294
99.1300 3.5633
99.1400 6.0420
99.1500 6.1385
99.1600 6.0221
99.1700 11.3065
99.1800 6.4013
99.1900 4.8409
99.2000 4.1641
99.2100 9.2473
99.2200 10.0140
99.2300 10.0538
99.2400 4.2846
99.2500 8.4833
99.2600 3.8928
99.2700 5.1642
99.2800 3.2284
99.2900 2.6927
99.3000 5.2750
99.3100 7.9442
99.3200 9.6881
99.3300 7.3874
99.3400 6.7491
99.3500 11.6357
99.3600 7.4673
99.3700 8.5136
99.3800 5.5725
99.3900 8.0889
99.4000 6.3599
99.4100 8.1831
99.4200 6.8800
99.4300 12.1983
99.4400 8.5020
99.4500 10.3511
99.4600 7.0157
99.4700 3.7339
99.4800 7.2245
99.4900 9.0733
99.5000 6.1168
99.5100 4.1809
99.5200 3.8418
99.5300 5.5648
99.5400 8.0862
99.5500 5.5843
99.5600 6.8352
99.5700 4.0883
99.5800 7.2246
99.5900 11.8329
99.6000 3.2182
99.6100 5.1115
99.6200 9.8579
99.6300 6.8348
99.6400 5.8680
99.6500 9.0530
99.6600 1.7303
99.6700 3.1629
99.6800 10.3174
99.6900 10.6312
99.7000 9.5456
99.7100 6.4295
99.7200 6.6025
99.7300 4.0675
99.7400 6.7055
99.7500 5.6368
99.7600 12.1878
99.7700 11.0701
99.7800 5.9705
99.7900 17.0754
99.8000 10.3165
99.8100 12.0502
99.8200 5.1053
99.8300 13.2805
99.8400 7.1296
99.8500 8.9773
99.8600 2.9623
99.8700 7.3265
99.8800 7.5337
99.8900 5.4355
99.9000 6.1920
99.9100 7.2757
99.9200 2.9184
99.9300 5.1377
99.9400 7.3887
99.9500 5.8559
99.9600 4.6260
99.9700 7.3584
99.9800 3.8829
99.9900 5.9384
100.0000 3.4824
100.0100 3.1025
100.0200 5.6226
100.0300 9.5700
100.0400 11.6132
100.0500 9.1424
100.0600 10.6887
100.0700 9.2778
100.0800 10.0180
100.0900 11.0804
100.1000 8.4841
100.1100 7.9033
100.1200 7.2504
100.1300 8.5209
100.1400 8.0565
100.1500 6.4689
100.1600 5.1268
100.1700 5.8760
100.1800 8.4433
100.1900 16.7575
100.2000 7.0043
100.2100 14.6046
100.2200 10.6155
100.2300 13.7143
100.2400 7.1166
100.2500 8.6493
100.2600 8.6519
100.2700 7.1045
100.2800 12.1761
100.2900 6.5773
100.3000 7.8638
100.3100 1.3704
100.3200 7.2451
100.3300 8.0508
100.3400 4.1754
100.3500 2.9618
100.3600 3.3899
100.3700 6.3792
100.3800 5.3976
100.3900 7.3761
100.4000 4.0789
100.4100 6.4286
100.4200 1.5448
100.4300 4.9900
100.4400 5.7853
100.4500 5.1997
100.4600 6.9209
100.4700 7.7609
100.4800 8.9962
100.4900 6.8033
100.5000 7.0726
100.5100 4.1650
100.5200 5.1228
100.5300 5.9645
100.5400 10.1964
100.5500 5.1006
100.5600 5.5111
100.5700 4.2489
100.5800 5.9537
100.5900 5.7187
100.6000 3.2961
100.6100 5.8416
100.6200 4.1720
100.6300 4.1011
100.6400 4.9273
100.6500 12.1574
100.6600 6.6813
100.6700 12.2033
100.6800 6.2281
100.6900 8.2236
100.7000 12.1072
100.7100 9.5933
100.7200 8.1794
100.7300 10.5956
100.7400 2.3740
100.7500 10.9158
100.7600 7.0616
100.7700 5.0855
100.7800 9.3726
100.7900 4.8672
100.8000 10.3766
100.8100 7.1916
100.8200 12.7016
100.8300 2.7267
100.8400 8.0385
100.8500 2.1121
100.8600 5.2216
100.8700 7.7263
100.8800 5.2335
100.8900 6.5248
100.9000 5.1633
100.9100 6.5914
100.9200 5.9605
100.9300 4.8881
100.9400 2.7596
100.9500 6.9366
100.9600 3.1299
100.9700 7.2406
100.9800 4.7522
100.9900 7.4025
101.0000 4.8223
101.0100 9.4594
101.0200 8.7950
101.0300 2.3889
101.0400 7.3982
101.0500 5.9838
101.0600 5.3101
101.0700 4.1161
101.0800 8.4054
101.0900 5.7014
101.1000 3.5457
101.1100 1.8610
101.1200 5.6551
101.1300 4.6341
101.1400 4.9762
101.1500 2.7828
101.1600 5.0619
101.1700 13.1921
101.1800 6.7203
101.1900 10.4707
101.2000 9.1553
101.2100 3.4007
101.2200 5.0183
101.2300 6.8668
101.2400 7.6450
101.2500 7.8070
101.2600 6.3039
101.2700 9.8968
101.2800 6.7945
101.2900 6.8850
101.3000 8.6362
101.3100 4.6296
101.3200 7.0092
101.3300 6.1900
101.3400 8.5148
101.3500 7.5891
101.3600 4.6935
101.3700 5.0393
101.3800 5.3038
101.3900 10.8400
101.4000 4.8540
101.4100 10.9584
101.4200 3.7819
101.4300 7.6162
101.4400 11.5235
101.4500 3.1609
101.4600 10.9179
101.4700 6.9733
101.4800 6.3437
101.4900 10.2912
101.5000 6.1365
101.5100 6.8214
101.5200 3.7395
101.5300 5.9169
101.5400 3.1689
101.5500 8.0445
101.5600 9.5229
101.5700 5.5426
101.5800 9.7503
101.5900 2.4968
101.6000 8.9584
101.6100 6.5465
101.6200 4.5156
101.6300 3.6948
101.6400 9.5722
101.6500 4.4826
101.6600 4.8827
101.6700 8.9824
101.6800 2.3909
101.6900 8.1243
101.7000 8.5552
101.7100 8.7373
101.7200 7.6074
101.7300 10.8757
101.7400 7.3767
101.7500 13.6145
101.7600 9.3269
101.7700 5.1550
101.7800 5.0270
101.7900 5.1483
101.8000 3.0236
101.8100 7.2383
101.8200 5.0887
101.8300 3.5401
101.8400 8.2078
101.8500 4.1741
101.8600 5.9164
101.8700 13.9120
101.8800 5.4949
101.8900 7.4235
101.9000 7.8095
101.9100 5.6823
101.9200 11.4510
101.9300 5.7077
101.9400 9.5787
101.9500 9.7229
101.9600 9.4107
101.9700 8.0913
101.9800 9.2917
101.9900 7.8460
102.0000 7.5070
102.0100 5.7522
102.0200 2.4648
102.0300 6.1198
102.0400 3.3633
102.0500 4.7405
102.0600 1.0369
102.0700 4.7253
102.0800 2.6521
102.0900 4.4008
102.1000 5.9020
102.1100 2.8884
102.1200 5.9527
102.1300 3.1046
102.1400 5.1919
102.1500 5.0819
102.1600 2.9685
102.1700 5.9386
102.1800 11.8565
102.1900 5.5832
102.2000 4.6756
102.2100 5.0028
102.2200 8.8968
102.2300 4.6720
102.2400 11.9755
102.2500 6.1329
102.2600 8.8215
102.2700 9.5297
102.2800 8.0585
102.2900 5.8954
102.3000 4.0289
102.3100 12.1434
102.3200 7.3754
102.3300 4.7187
102.3400 11.0637
102.3500 4.3989
102.3600 6.8154
102.3700 7.0189
102.3800 8.9817
102.3900 9.7591
102.4000 6.9304
102.4100 13.7095
102.4200 7.7159
102.4300 11.7049
102.4400 10.6555
102.4500 12.2483
102.4600 7.9249
102.4700 6.1140
102.4800 6.3098
102.4900 5.5186
102.5000 3.2379
102.5100 6.8025
102.5200 7.1886
102.5300 3.1511
102.5400 5.6126
102.5500 5.4126
102.5600 8.7002
102.5700 7.0563
102.5800 14.5073
102.5900 5.9366
102.6000 5.2948
102.6100 8.2169
102.6200 5.1884
102.6300 6.8825
102.6400 7.8568
102.6500 5.7890
102.6600 5.0677
102.6700 5.9308
102.6800 3.1945
102.6900 6.1981
102.7000 6.2876
102.7100 5.7913
102.7200 8.9025
102.7300 8.3116
102.7400 11.7446
102.7500 2.6206
102.7600 6.0504
102.7700 2.1353
102.7800 5.0496
102.7900 4.3875
102.8000 2.5542
102.8100 4.6963
102.8200 5.5685
102.8300 4.7694
102.8400 6.4649
102.8500 15.2108
102.8600 2.6069
102.8700 12.3230
102.8800 6.7719
102.8900 12.3599
102.9000 3.3704
102.9100 13.4801
102.9200 10.7927
102.9300 11.1446
102.9400 10.9225
102.9500 6.6541
102.9600 7.6471
102.9700 8.0922
102.9800 13.4342
102.9900 4.3466
103.0000 7.8092
103.0100 8.3017
103.0200 9.4269
103.0300 6.1502
103.0400 10.8910
103.0500 8.3930
103.0600 13.1027
103.0700 3.5128
103.0800 1.8134
103.0900 3.1455
103.1000 5.3154
103.1100 4.7350
103.1200 6.3070
103.1300 5.8740
103.1400 5.9930
103.1500 8.7372
103.1600 11.9290
103.1700 5.8481
103.1800 9.8803
103.1900 8.6865
103.2000 13.1587
103.2100 7.5844
103.2200 9.9894
103.2300 9.0863
103.2400 18.5909
103.2500 12.2229
103.2600 9.4351
103.2700 6.2231
103.2800 11.8932
103.2900 7.4510
103.3000 4.4243
103.3100 9.6098
103.3200 7.7354
103.3300 8.5572
103.3400 8.6994
103.3500 3.6854
103.3600 8.5792
103.3700 4.1596
103.3800 4.3054
103.3900 1.1705
103.4000 5.9788
103.4100 6.8584
103.4200 3.4678
103.4300 4.0229
103.4400 12.4847
103.4500 7.6186
103.4600 9.5135
103.4700 7.8799
103.4800 5.9021
103.4900 2.1909
103.5000 7.2514
103.5100 1.3297
103.5200 8.4835
103.5300 4.8552
103.5400 5.1462
103.5500 1.3255
103.5600 6.4954
103.5700 2.6725
103.5800 3.1774
103.5900 6.2799
103.6000 7.1078
103.6100 6.3321
103.6200 1.4013
103.6300 11.0448
103.6400 5.0036
103.6500 4.1114
103.6600 3.6093
103.6700 5.2623
103.6800 6.7729
103.6900 6.1329
103.7000 3.1184
103.7100 3.1546
103.7200 2.2317
103.7300 4.6520
103.7400 6.8997
103.7500 5.5291
103.7600 10.4640
103.7700 3.6104
103.7800 7.6854
103.7900 3.9643
103.8000 5.1735
103.8100 5.3936
103.8200 2.3409
103.8300 9.1072
103.8400 6.9686
103.8500 3.5584
103.8600 2.9971
103.8700 8.1791
103.8800 6.1926
103.8900 6.7162
103.9000 4.8755
103.9100 10.5161
103.9200 5.2131
103.9300 3.2828
103.9400 7.0419
103.9500 3.6799
103.9600 5.1231
103.9700 3.9892
103.9800 6.2507
103.9900 7.5377
104.0000 5.9537
104.0100 6.2869
104.0200 4.8776
104.0300 8.5254
104.0400 4.4848
104.0500 4.2648
104.0600 6.5598
104.0700 7.8889
104.0800 6.7032
104.0900 8.3291
104.1000 7.7129
104.1100 2.1013
104.1200 4.6187
104.1300 1.2736
104.1400 3.9808
104.1500 6.3844
104.1600 6.9814
104.1700 10.2726
104.1800 14.1456
104.1900 8.4868
104.2000 5.4165
104.2100 6.4699
104.2200 7.3595
104.2300 8.7050
104.2400 8.9453
104.2500 5.5616
104.2600 8.3130
104.2700 4.1277
104.2800 10.7710
104.2900 9.7285
104.3000 9.1525
104.3100 2.4692
104.3200 5.4177
104.3300 3.3128
104.3400 8.7679
104.3500 6.6596
104.3600 4.2250
104.3700 5.4704
104.3800 10.6633
104.3900 4.5894
104.4000 8.7150
104.4100 6.9167
104.4200 7.6179
104.4300 3.7465
104.4400 9.4069
104.4500 7.1688
104.4600 7.4924
104.4700 9.0383
104.4800 5.5879
104.4900 8.2327
104.5000 6.7494
104.5100 9.4851
104.5200 7.1370
104.5300 10.2889
104.5400 6.9013
104.5500 8.2178
104.5600 6.0575
104.5700 4.3686
104.5800 6.6661
104.5900 7.0837
104.6000 3.2679
104.6100 3.3232
104.6200 2.1124
104.6300 3.6059
104.6400 3.1892
104.6500 10.0702
104.6600 7.5259
104.6700 7.4860
104.6800 13.0740
104.6900 4.9536
104.7000 4.7149
104.7100 7.5992
104.7200 4.3237
104.7300 5.9925
104.7400 7.6172
104.7500 13.7802
104.7600 7.1576
104.7700 9.6924
104.7800 8.2791
104.7900 9.0223
104.8000 2.8396
104.8100 1.9594
104.8200 8.5807
104.8300 4.4564
104.8400 5.4747
104.8500 8.4119
104.8600 4.7497
104.8700 16.6907
104.8800 9.5234
104.8900 16.8889
104.9000 11.4427
104.9100 16.3035
104.9200 10.4132
104.9300 8.2536
104.9400 7.7317
104.9500 7.7796
104.9600 5.1598
104.9700 5.3627
104.9800 8.0147
104.9900 6.4680
105.0000 10.2953
105.0100 5.5125
105.0200 10.8708
105.0300 8.3134
105.0400 16.0956
105.0500 1.5145
105.0600 7.9139
105.0700 4.1792
105.0800 3.5874
105.0900 5.0610
105.1000 5.1824
105.1100 3.2145
105.1200 3.6392
105.1300 4.8921
105.1400 4.5154
105.1500 7.0582
105.1600 6.6053
105.1700 6.0799
105.1800 7.4701
105.1900 2.2881
105.2000 3.0812
105.2100 9.3838
105.2200 5.9072
105.2300 7.1084
105.2400 8.7513
105.2500 5.1844
105.2600 4.3231
105.2700 4.7271
105.2800 4.0708
105.2900 4.3299
105.3000 7.4312
105.3100 4.2502
105.3200 6.2377
105.3300 6.2489
105.3400 6.8712
105.3500 6.6829
105.3600 6.1161
105.3700 3.4388
105.3800 4.7427
105.3900 4.7816
105.4000 5.1493
105.4100 5.2654
105.4200 7.5660
105.4300 9.2903
105.4400 6.2564
105.4500 6.4273
105.4600 6.3375
105.4700 5.2981
105.4800 4.5389
105.4900 4.9884
105.5000 4.0702
105.5100 6.9479
105.5200 7.3509
105.5300 7.5522
105.5400 4.6006
105.5500 8.5778
105.5600 4.1428
105.5700 4.7477
105.5800 6.1231
105.5900 7.0280
105.6000 4.8832
105.6100 7.7112
105.6200 8.3035
105.6300 11.0491
105.6400 3.2555
105.6500 8.0428
105.6600 9.8378
105.6700 6.2327
105.6800 3.2096
105.6900 7.1209
105.7000 12.9130
105.7100 12.2829
105.7200 5.5828
105.7300 14.0696
105.7400 5.1764
105.7500 9.8156
105.7600 4.2131
105.7700 5.4600
105.7800 4.1747
105.7900 3.7510
105.8000 5.9782
105.8100 3.0555
105.8200 8.4808
105.8300 9.4816
105.8400 5.4900
105.8500 1.9257
105.8600 4.4691
105.8700 8.4560
105.8800 4.1766
105.8900 4.0571
105.9000 8.8285
105.9100 4.5892
105.9200 2.9658
105.9300 5.2096
105.9400 9.3042
105.9500 3.2571
105.9600 7.5163
105.9700 3.6895
105.9800 3.0204
105.9900 3.0150
106.0000 7.4106
106.0100 6.2410
106.0200 6.0751
106.0300 6.0724
106.0400 5.0019
106.0500 6.2841
106.0600 9.2805
106.0700 3.3969
106.0800 5.9993
106.0900 5.9712
106.1000 6.3319
106.1100 1.6032
106.1200 8.3786
106.1300 4.3748
106.1400 6.0261
106.1500 6.3689
106.1600 7.8186
106.1700 4.4401
106.1800 6.4244
106.1900 3.8004
106.2000 6.7686
106.2100 4.6147
106.2200 11.9147
106.2300 5.3301
106.2400 10.3780
106.2500 9.9036
106.2600 4.5951
106.2700 6.2778
106.2800 7.1851
106.2900 4.7681
106.3000 6.1214
106.3100 7.3379
106.3200 5.2829
106.3300 4.9527
106.3400 2.7960
106.3500 6.9386
106.3600 4.6295
106.3700 6.0977
106.3800 5.6086
106.3900 5.7574
106.4000 6.9032
106.4100 7.3424
106.4200 9.6732
106.4300 5.5404
106.4400 7.2463
106.4500 6.4323
106.4600 6.9136
106.4700 2.2375
106.4800 5.3826
106.4900 8.3725
106.5000 9.3767
106.5100 6.8500
106.5200 10.5811
106.5300 6.2986
106.5400 5.7662
106.5500 8.0917
106.5600 4.5561
106.5700 11.7434
106.5800 3.2493
106.5900 4.3591
106.6000 3.3283
106.6100 5.4402
106.6200 8.0660
106.6300 14.1762
106.6400 9.2589
106.6500 9.9977
106.6600 6.9383
106.6700 7.1377
106.6800 4.8650
106.6900 9.1233
106.7000 1.1794
106.7100 10.1586
106.7200 3.0455
106.7300 10.4305
106.7400 4.8535
106.7500 7.1261
106.7600 8.6398
106.7700 7.3237
106.7800 9.5050
106.7900 6.4864
106.8000 4.1719
106.8100 4.9536
106.8200 6.2876
106.8300 6.5856
106.8400 6.8019
106.8500 5.1792
106.8600 9.4004
106.8700 6.7988
106.8800 7.9277
106.8900 5.2715
106.9000 2.6038
106.9100 5.0669
106.9200 5.0872
106.9300 5.3308
106.9400 5.2241
106.9500 3.1366
106.9600 7.2969
106.9700 5.5974
106.9800 6.8988
106.9900 6.6636
107.0000 5.3601
107.0100 6.1909
107.0200 5.0023
107.0300 4.1271
107.0400 7.6310
107.0500 6.2288
107.0600 4.6848
107.0700 3.7586
107.0800 6.7565
107.0900 8.3564
107.1000 6.8793
107.1100 7.0666
107.1200 4.3516
107.1300 5.8506
107.1400 6.3546
107.1500 6.0535
107.1600 9.1303
107.1700 4.6044
107.1800 3.1821
107.1900 3.9960
107.2000 6.7474
107.2100 1.4871
107.2200 10.1688
107.2300 5.9420
107.2400 8.0485
107.2500 5.6105
107.2600 10.7569
107.2700 6.5818
107.2800 4.3850
107.2900 4.7500
107.3000 7.1518
107.3100 5.8041
107.3200 7.2548
107.3300 3.0555
107.3400 8.7892
107.3500 8.1260
107.3600 3.9632
107.3700 7.3693
107.3800 5.7477
107.3900 12.0270
107.4000 6.7634
107.4100 10.9583
107.4200 8.0771
107.4300 6.4811
107.4400 6.8569
107.4500 4.2722
107.4600 6.1151
107.4700 8.3463
107.4800 9.5981
107.4900 12.4970
107.5000 6.3568
107.5100 6.8066
107.5200 7.4411
107.5300 6.3319
107.5400 7.9995
107.5500 8.3984
107.5600 4.5091
107.5700 4.5187
107.5800 4.4696
107.5900 11.2907
107.6000 7.6852
107.6100 3.0572
107.6200 9.1171
107.6300 5.0938
107.6400 8.2229
107.6500 12.9064
107.6600 16.0004
107.6700 5.9189
107.6800 10.4323
107.6900 10.9507
107.7000 7.4894
107.7100 13.8395
107.7200 6.4453
107.7300 5.5845
107.7400 7.1787
107.7500 7.5245
107.7600 14.0422
107.7700 7.5576
107.7800 7.9595
107.7900 6.1438
107.8000 6.8586
107.8100 8.9632
107.8200 5.7536
107.8300 5.3975
107.8400 7.3953
107.8500 8.3283
107.8600 4.3494
107.8700 6.8784
107.8800 9.3383
107.8900 8.9707
107.9000 4.2789
107.9100 6.8339
107.9200 6.2111
107.9300 7.8486
107.9400 6.6352
107.9500 2.8350
107.9600 6.3738
107.9700 8.1003
107.9800 5.5415
107.9900 9.2251
108.0000 6.7155
108.0100 5.2477
108.0200 5.7858
108.0300 4.4879
108.0400 8.6425
108.0500 4.0202
108.0600 11.0731
108.0700 6.0022
108.0800 10.0517
108.0900 8.7321
108.1000 3.9261
108.1100 4.5605
108.1200 6.2532
108.1300 8.1233
108.1400 6.8209
108.1500 4.8245
108.1600 6.8296
108.1700 7.8195
108.1800 8.9030
108.1900 5.7174
108.2000 8.6919
108.2100 6.5319
108.2200 3.0418
108.2300 7.6993
108.2400 4.2760
108.2500 7.8164
108.2600 8.0429
108.2700 8.7301
108.2800 11.1247
108.2900 4.9472
108.3000 5.2542
108.3100 7.0318
108.3200 4.4703
108.3300 5.1598
108.3400 6.9035
108.3500 2.8682
108.3600 8.4855
108.3700 12.5986
108.3800 6.3844
108.3900 4.8970
108.4000 3.5892
108.4100 7.2506
108.4200 6.2556
108.4300 6.6547
108.4400 6.8978
108.4500 6.4575
108.4600 3.6235
108.4700 9.0126
108.4800 8.0777
108.4900 3.2733
108.5000 4.8361
108.5100 5.9646
108.5200 3.7797
108.5300 5.5925
108.5400 5.2281
108.5500 5.6310
108.5600 3.9225
108.5700 6.6420
108.5800 7.4465
108.5900 10.1785
108.6000 8.2078
108.6100 5.2709
108.6200 8.6477
108.6300 4.6918
108.6400 5.2434
108.6500 4.2093
108.6600 7.7297
108.6700 8.1938
108.6800 7.3431
108.6900 3.4403
108.7000 5.1023
108.7100 5.3723
108.7200 7.8812
108.7300 7.0228
108.7400 6.5703
108.7500 4.2782
108.7600 3.9649
108.7700 16.4573
108.7800 8.0542
108.7900 5.0704
108.8000 2.2270
108.8100 8.1340
108.8200 4.0781
108.8300 8.7613
108.8400 6.0808
108.8500 9.8963
108.8600 5.2615
108.8700 4.7371
108.8800 7.8235
108.8900 6.5884
108.9000 5.3965
108.9100 4.3682
108.9200 3.2075
108.9300 6.3804
108.9400 4.5633
108.9500 8.2913
108.9600 3.8893
108.9700 12.2546
108.9800 6.8614
108.9900 2.4216
109.0000 4.9704
109.0100 5.2766
109.0200 9.1952
109.0300 5.0761
109.0400 10.4073
109.0500 5.4432
109.0600 7.2447
109.0700 3.7755
109.0800 4.5924
109.0900 4.9543
109.1000 2.6860
109.1100 7.2684
109.1200 5.2645
109.1300 5.4666
109.1400 6.5331
109.1500 4.3911
109.1600 7.5934
109.1700 9.7557
109.1800 9.0777
109.1900 11.0680
109.2000 9.5269
109.2100 7.9083
109.2200 5.4177
109.2300 9.1628
109.2400 7.5531
109.2500 4.7868
109.2600 10.6706
109.2700 5.5194
109.2800 7.8969
109.2900 5.4464
109.3000 4.0971
109.3100 6.6178
109.3200 3.0332
109.3300 4.8595
109.3400 6.0697
109.3500 5.6035
109.3600 7.9684
109.3700 6.4443
109.3800 4.7310
109.3900 7.3050
109.4000 7.2688
109.4100 8.4905
109.4200 9.1089
109.4300 7.7466
109.4400 7.5671
109.4500 3.3875
109.4600 5.2594
109.4700 8.0776
109.4800 8.1071
109.4900 10.1015
109.5000 7.0814
109.5100 6.2559
109.5200 6.2240
109.5300 7.8362
109.5400 3.6128
109.5500 6.1580
109.5600 3.2974
109.5700 6.6563
109.5800 5.8573
109.5900 5.7894
109.6000 9.3938
109.6100 5.6100
109.6200 6.2764
109.6300 6.4600
109.6400 5.6102
109.6500 13.5310
109.6600 6.0843
109.6700 4.0157
109.6800 6.9204
109.6900 7.1733
109.7000 6.2200
109.7100 4.9232
109.7200 6.5053
109.7300 8.0370
109.7400 12.1793
109.7500 7.5526
109.7600 8.4212
109.7700 3.5263
109.7800 7.0231
109.7900 4.5101
109.8000 9.0952
109.8100 6.2045
109.8200 4.4500
109.8300 5.6974
109.8400 6.9446
109.8500 6.7022
109.8600 7.2520
109.8700 5.2110
109.8800 3.9301
109.8900 2.5712
109.9000 2.5282
109.9100 5.7491
109.9200 8.1106
109.9300 8.4818
109.9400 4.2909
109.9500 3.1900
109.9600 6.8961
109.9700 7.2451
109.9800 4.8779
109.9900 0.0000
110.0000 2.6062
110.0100 4.1522
110.0200 2.6499
110.0300 2.1828
110.0400 5.5280
110.0500 9.4359
110.0600 9.9032
110.0700 5.4190
110.0800 9.2558
110.0900 4.3310
110.1000 3.1132
110.1100 3.1843
110.1200 4.5911
110.1300 7.8296
110.1400 7.4561
110.1500 6.9393
110.1600 7.8038
110.1700 4.2928
110.1800 11.4097
110.1900 7.6496
110.2000 9.0015
110.2100 6.6317
110.2200 5.4312
110.2300 7.6521
110.2400 8.1855
110.2500 7.8254
110.2600 4.2544
110.2700 4.3242
110.2800 5.2511
110.2900 4.4136
110.3000 7.6093
110.3100 7.2883
110.3200 5.3936
110.3300 6.2497
110.3400 9.6452
110.3500 3.7237
110.3600 10.6280
110.3700 3.7379
110.3800 8.0065
110.3900 7.0781
110.4000 7.3664
110.4100 7.5546
110.4200 5.2281
110.4300 8.9431
110.4400 7.3466
110.4500 4.8925
110.4600 7.1422
110.4700 9.3187
110.4800 8.7472
110.4900 7.2807
110.5000 8.3827
110.5100 7.4076
110.5200 6.3384
110.5300 7.3378
110.5400 5.1926
110.5500 1.5689
110.5600 5.3868
110.5700 4.2247
110.5800 5.9526
110.5900 7.7770
110.6000 6.8302
110.6100 4.8374
110.6200 8.7729
110.6300 8.8967
110.6400 8.9852
110.6500 5.9015
110.6600 8.7929
110.6700 2.9689
110.6800 8.2005
110.6900 3.4686
110.7000 4.1722
110.7100 1.2277
110.7200 10.8934
110.7300 3.3840
110.7400 4.7329
110.7500 17.7057
110.7600 5.8668
110.7700 11.1536
110.7800 8.7993
110.7900 4.6958
110.8000 4.2085
110.8100 3.9075
110.8200 10.3612
110.8300 6.8456
110.8400 6.9134
110.8500 11.9174
110.8600 2.5692
110.8700 5.4932
110.8800 8.1668
110.8900 8.3514
110.9000 3.6507
110.9100 7.9883
110.9200 8.6208
110.9300 9.9853
110.9400 5.5113
110.9500 5.7003
110.9600 6.5028
110.9700 3.8822
110.9800 8.6164
110.9900 3.1975
111.0000 4.0002
111.0100 10.5342
111.0200 3.9158
111.0300 7.1292
111.0400 2.3684
111.0500 5.1318
111.0600 5.1336
111.0700 2.7043
111.0800 8.0244
111.0900 4.6756
111.1000 5.3391
111.1100 4.5497
111.1200 5.5088
111.1300 7.7547
111.1400 14.6971
111.1500 8.1078
111.1600 12.9502
111.1700 5.5997
111.1800 4.0249
111.1900 2.6088
111.2000 1.5670
111.2100 3.5704
111.2200 1.8546
111.2300 3.8639
111.2400 5.3489
111.2500 4.1755
111.2600 3.1648
111.2700 8.7582
111.2800 5.9153
111.2900 5.5165
111.3000 5.5829
111.3100 7.3554
111.3200 4.7355
111.3300 7.9596
111.3400 2.5784
111.3500 6.2658
111.3600 7.3698
111.3700 4.4470
111.3800 7.8449
111.3900 11.7490
111.4000 6.2107
111.4100 4.8704
111.4200 7.7596
111.4300 8.3679
111.4400 6.1455
111.4500 6.2851
111.4600 7.8211
111.4700 3.4525
111.4800 7.2666
111.4900 5.6077
111.5000 8.3656
111.5100 2.6989
111.5200 9.2375
111.5300 3.9955
111.5400 6.2023
111.5500 9.3459
111.5600 5.2890
111.5700 4.5585
111.5800 7.4987
111.5900 9.4078
111.6000 6.9419
111.6100 11.1052
111.6200 6.7209
111.6300 5.0236
111.6400 5.1691
111.6500 5.2350
111.6600 6.8525
111.6700 3.7155
111.6800 6.4509
111.6900 3.3455
111.7000 4.0653
111.7100 4.6408
111.7200 3.7209
111.7300 7.0961
111.7400 6.6745
111.7500 3.6347
111.7600 3.8094
111.7700 4.2625
111.7800 4.2121
111.7900 7.4901
111.8000 8.5429
111.8100 4.4175
111.8200 13.4955
111.8300 9.4303
111.8400 10.3787
111.8500 15.1744
111.8600 10.0553
111.8700 9.7806
111.8800 4.7204
111.8900 8.4174
111.9000 6.3314
111.9100 7.3800
111.9200 8.9259
111.9300 5.6724
111.9400 8.2469
111.9500 5.7581
111.9600 5.7841
111.9700 6.4874
111.9800 4.1456
111.9900 9.5042
112.0000 10.0957
112.0100 7.8029
112.0200 5.9988
112.0300 7.6120
112.0400 9.9549
112.0500 5.4532
112.0600 0.3364
112.0700 2.6474
112.0800 4.2355
112.0900 2.2338
112.1000 3.7405
112.1100 1.9831
112.1200 5.0403
112.1300 8.2509
112.1400 8.3567
112.1500 5.6539
112.1600 7.5394
112.1700 6.2060
112.1800 10.5045
112.1900 6.3371
112.2000 5.8977
112.2100 5.6119
112.2200 5.0752
112.2300 4.0047
112.2400 7.4614
112.2500 10.4179
112.2600 4.2957
112.2700 3.5247
112.2800 5.5998
112.2900 4.3656
112.3000 4.0892
112.3100 3.3652
112.3200 4.7956
112.3300 7.3199
112.3400 5.2776
112.3500 4.6368
112.3600 4.9818
112.3700 9.0509
112.3800 6.9335
112.3900 7.0903
112.4000 9.1404
112.4100 7.9311
112.4200 6.7807
112.4300 5.7597
112.4400 10.1779
112.4500 6.3794
112.4600 6.5890
112.4700 3.4643
112.4800 8.0696
112.4900 7.6024
112.5000 5.7016
112.5100 5.2606
112.5200 8.0547
112.5300 5.3806
112.5400 5.7583
112.5500 4.6733
112.5600 4.4152
112.5700 3.0339
112.5800 6.0047
112.5900 6.0696
112.6000 7.7428
112.6100 0.2937
112.6200 3.0831
112.6300 7.4969
112.6400 5.3811
112.6500 6.4298
112.6600 6.4831
112.6700 6.2232
112.6800 8.2804
112.6900 4.6210
112.7000 4.8235
112.7100 6.6456
112.7200 7.3149
112.7300 3.5841
112.7400 8.0656
112.7500 6.1615
112.7600 6.0878
112.7700 8.4234
112.7800 8.1243
112.7900 2.4668
112.8000 1.0802
112.8100 8.9902
112.8200 3.5335
112.8300 4.4196
112.8400 5.0458
112.8500 1.9411
112.8600 8.4719
112.8700 7.1246
112.8800 3.8869
112.8900 6.3648
112.9000 11.9787
112.9100 3.4366
112.9200 4.1726
112.9300 6.0692
112.9400 1.3327
112.9500 6.2860
112.9600 4.3629
112.9700 6.2208
112.9800 15.2680
112.9900 6.9403
113.0000 2.5949
113.0100 6.9284
113.0200 4.7372
113.0300 12.7005
113.0400 11.8793
113.0500 4.3887
113.0600 5.5760
113.0700 4.5146
113.0800 7.3496
113.0900 3.5815
113.1000 4.0996
113.1100 10.8905
113.1200 8.8128
113.1300 5.8537
113.1400 4.9754
113.1500 1.1911
113.1600 5.5563
113.1700 1.6643
113.1800 7.8889
113.1900 4.7510
113.2000 6.5027
113.2100 4.9780
113.2200 5.4405
113.2300 6.6966
113.2400 7.4338
113.2500 5.1395
113.2600 5.3555
113.2700 8.2499
113.2800 6.0181
113.2900 7.8736
113.3000 5.6948
113.3100 4.8083
113.3200 6.1665
113.3300 8.4098
113.3400 5.6867
113.3500 15.8955
113.3600 3.6721
113.3700 1.3534
113.3800 7.0255
113.3900 4.9928
113.4000 3.6880
113.4100 4.5352
113.4200 4.4937
113.4300 7.6172
113.4400 6.4578
113.4500 7.4381
113.4600 4.2841
113.4700 7.3580
113.4800 9.5332
113.4900 8.3968
113.5000 2.2553
113.5100 4.5133
113.5200 11.5144
113.5300 4.2883
113.5400 11.1646
113.5500 4.5743
113.5600 7.2509
113.5700 6.1578
113.5800 11.1058
113.5900 4.2562
113.6000 5.0882
113.6100 3.1688
113.6200 6.5963
113.6300 7.2479
113.6400 7.5910
113.6500 11.5332
113.6600 6.2019
113.6700 5.5035
113.6800 4.1057
113.6900 1.4639
113.7000 8.0497
113.7100 4.8120
113.7200 7.1960
113.7300 10.7514
113.7400 4.9798
113.7500 3.1438
113.7600 4.4361
113.7700 3.1189
113.7800 9.0163
113.7900 3.2242
113.8000 4.8128
113.8100 1.4950
113.8200 7.1138
113.8300 3.1456
113.8400 7.1529
113.8500 3.9225
113.8600 7.1397
113.8700 5.0006
113.8800 3.4364
113.8900 3.0211
113.9000 2.2237
113.9100 4.8795
113.9200 5.5739
113.9300 4.2978
113.9400 6.2291
113.9500 2.6197
113.9600 6.8921
113.9700 5.2578
113.9800 4.2298
113.9900 4.2340
114.0000 7.3541
114.0100 3.1366
114.0200 3.6260
114.0300 1.4398
114.0400 8.2445
114.0500 3.7218
114.0600 3.1178
114.0700 4.1449
114.0800 5.0070
114.0900 3.3383
114.1000 6.1529
114.1100 3.2817
114.1200 6.8161
114.1300 6.5009
114.1400 5.6842
114.1500 3.5915
114.1600 4.2037
114.1700 6.3771
114.1800 6.4741
114.1900 8.9131
114.2000 7.8361
114.2100 10.3873
114.2200 3.5477
114.2300 7.3638
114.2400 5.3695
114.2500 8.7772
114.2600 6.6705
114.2700 9.9447
114.2800 6.9278
114.2900 2.9875
114.3000 14.9841
114.3100 9.6972
114.3200 8.3989
114.3300 4.7534
114.3400 7.5893
114.3500 6.0210
114.3600 7.4385
114.3700 4.9455
114.3800 6.9607
114.3900 11.6000
114.4000 7.8721
114.4100 8.0681
114.4200 6.3090
114.4300 7.5559
114.4400 8.0183
114.4500 10.2989
114.4600 3.3873
114.4700 7.0691
114.4800 2.1148
114.4900 2.6142
114.5000 5.9018
114.5100 3.9653
114.5200 8.1353
114.5300 9.7296
114.5400 8.1394
114.5500 9.7722
114.5600 6.4342
114.5700 9.3085
114.5800 2.6990
114.5900 2.7407
114.6000 7.8862
114.6100 8.2671
114.6200 5.6378
114.6300 9.2847
114.6400 5.3685
114.6500 5.7215
114.6600 4.4851
114.6700 7.1728
114.6800 3.9679
114.6900 5.8952
114.7000 6.6788
114.7100 6.3881
114.7200 12.6768
114.7300 4.5810
114.7400 6.6650
114.7500 8.1947
114.7600 5.6066
114.7700 1.7992
114.7800 1.9542
114.7900 3.7763
114.8000 4.4181
114.8100 7.8329
114.8200 8.8929
114.8300 9.4350
114.8400 10.2946
114.8500 9.3509
114.8600 6.6422
114.8700 8.9341
114.8800 3.4728
114.8900 4.9349
114.9000 8.3327
114.9100 5.6312
114.9200 7.7791
114.9300 3.6540
114.9400 4.7729
114.9500 4.3145
114.9600 12.8051
114.9700 6.2419
114.9800 4.1640
114.9900 7.1451
115.0000 5.9957
115.0100 7.8509
115.0200 3.6800
115.0300 6.8745
115.0400 4.0143
115.0500 3.0536
115.0600 6.3051
115.0700 5.9687
115.0800 4.0753
115.0900 6.8026
115.1000 3.8443
115.1100 8.1163
115.1200 3.5489
115.1300 5.0236
115.1400 3.7652
115.1500 9.0311
115.1600 3.2681
115.1700 4.4161
115.1800 7.0984
115.1900 6.9581
115.2000 5.1391
115.2100 6.6956
115.2200 10.1735
115.2300 5.3510
115.2400 6.2083
115.2500 7.6587
115.2600 1.2023
115.2700 8.9026
115.2800 1.6239
115.2900 7.7994
115.3000 5.3370
115.3100 8.5951
115.3200 4.6109
115.3300 9.0561
115.3400 3.1365
115.3500 8.1623
115.3600 12.1337
115.3700 11.3730
115.3800 6.4152
115.3900 9.8591
115.4000 5.3177
115.4100 8.2928
115.4200 5.8293
115.4300 7.6842
115.4400 3.5745
115.4500 5.3452
115.4600 11.3182
115.4700 6.6401
115.4800 5.1368
115.4900 4.0357
115.5000 5.2478
115.5100 4.8917
115.5200 5.8886
115.5300 9.7150
115.5400 7.7778
115.5500 4.4041
115.5600 4.5840
115.5700 3.9956
115.5800 4.0016
115.5900 8.4099
115.6000 8.1103
115.6100 5.2931
115.6200 4.9475
115.6300 9.1515
115.6400 10.2226
115.6500 7.3635
115.6600 9.1933
115.6700 13.2480
115.6800 9.5765
115.6900 5.2182
115.7000 9.6742
115.7100 8.7198
115.7200 11.2742
115.7300 6.3771
115.7400 6.7061
115.7500 13.7355
115.7600 10.1094
115.7700 10.1702
115.7800 12.1944
115.7900 11.7578
115.8000 17.4467
115.8100 14.3360
115.8200 15.8545
115.8300 15.4053
115.8400 10.4653
115.8500 11.7661
115.8600 17.3873
115.8700 17.0858
115.8800 11.4678
115.8900 13.6589
115.9000 19.0445
115.9100 22.1228
115.9200 15.8439
115.9300 18.1079
115.9400 18.4461
115.9500 21.1611
115.9600 20.5666
115.9700 14.0249
115.9800 15.7687
115.9900 17.7574
116.0000 15.9989
116.0100 14.2085
116.0200 14.7947
116.0300 13.1366
116.0400 16.9532
116.0500 12.4247
116.0600 17.0756
116.0700 18.9909
116.0800 15.6802
116.0900 26.1560
116.1000 15.3285
116.1100 24.8403
116.1200 23.8515
116.1300 24.3927
116.1400 17.0027
116.1500 23.7664
116.1600 16.5248
116.1700 17.2268
116.1800 10.8121
116.1900 13.9206
116.2000 7.0489
116.2100 15.6833
116.2200 18.6639
116.2300 10.9284
116.2400 10.1081
116.2500 13.7458
116.2600 15.1453
116.2700 5.9160
116.2800 8.6774
116.2900 8.0612
116.3000 11.0154
116.3100 11.4914
116.3200 11.6814
116.3300 13.4117
116.3400 11.3640
116.3500 16.4364
116.3600 14.0123
116.3700 8.5822
116.3800 12.0856
116.3900 6.7184
116.4000 6.9717
116.4100 7.6962
116.4200 7.0386
116.4300 13.4546
116.4400 13.6500
116.4500 10.4526
116.4600 9.1085
116.4700 8.8801
116.4800 6.5615
116.4900 10.8975
116.5000 8.9260
116.5100 7.6416
116.5200 7.9662
116.5300 11.5776
116.5400 9.7586
116.5500 8.1684
116.5600 3.3473
116.5700 11.1144
116.5800 11.3422
116.5900 9.8463
116.6000 9.9640
116.6100 6.8530
116.6200 8.1882
116.6300 4.2657
116.6400 10.2869
116.6500 9.4417
116.6600 9.3520
116.6700 13.4116
116.6800 9.0842
116.6900 6.2744
116.7000 4.6079
116.7100 6.1390
116.7200 3.8972
116.7300 7.7464
116.7400 8.5445
116.7500 9.9689
116.7600 10.6575
116.7700 9.9129
116.7800 8.0207
116.7900 4.3373
116.8000 6.0671
116.8100 3.5810
116.8200 6.0417
116.8300 7.3705
116.8400 6.1815
116.8500 6.6128
116.8600 5.1961
116.8700 4.9785
116.8800 3.3575
116.8900 7.0042
116.9000 7.0431
116.9100 6.5610
116.9200 8.4096
116.9300 9.8775
116.9400 5.2554
116.9500 1.2205
116.9600 6.1647
116.9700 3.9085
116.9800 6.2995
116.9900 5.0437
117.0000 7.2677
117.0100 5.0016
117.0200 4.8611
117.0300 5.4172
117.0400 4.2420
117.0500 5.2082
117.0600 3.0147
117.0700 4.2376
117.0800 6.4744
117.0900 4.1134
117.1000 4.9054
117.1100 6.8051
117.1200 7.7157
117.1300 6.5091
117.1400 6.2243
117.1500 5.0630
117.1600 8.5337
117.1700 8.5593
117.1800 17.2030
117.1900 3.9476
117.2000 13.8611
117.2100 4.4097
117.2200 7.8022
117.2300 4.8562
117.2400 6.6466
117.2500 2.5481
117.2600 8.8431
117.2700 7.6977
117.2800 6.5359
117.2900 5.0918
117.3000 7.1665
117.3100 5.3227
117.3200 5.8554
117.3300 4.0678
117.3400 8.0653
117.3500 6.5692
117.3600 4.9920
117.3700 7.1617
117.3800 5.2565
117.3900 10.1707
117.4000 6.5602
117.4100 12.6160
117.4200 4.4208
117.4300 6.0324
117.4400 5.4830
117.4500 4.7079
117.4600 5.2703
117.4700 4.9917
117.4800 5.2256
117.4900 2.6378
117.5000 12.1743
117.5100 9.6362
117.5200 9.4130
117.5300 3.1135
117.5400 8.6889
117.5500 7.8776
117.5600 5.6882
117.5700 7.6191
117.5800 7.8240
117.5900 4.1372
117.6000 7.1907
117.6100 9.0627
117.6200 9.1854
117.6300 5.0749
117.6400 4.0852
117.6500 10.1769
117.6600 10.0492
117.6700 9.4696
117.6800 8.2209
117.6900 6.4547
117.7000 6.6061
117.7100 2.1548
117.7200 5.7835
117.7300 8.9090
117.7400 4.7956
117.7500 6.5515
117.7600 7.1898
117.7700 2.8306
117.7800 5.2208
117.7900 11.2106
117.8000 5.0793
117.8100 7.1563
117.8200 4.5852
117.8300 6.8126
117.8400 6.1758
117.8500 4.3290
117.8600 6.3390
117.8700 4.7179
117.8800 4.7289
117.8900 5.8871
117.9000 7.4934
117.9100 6.9180
117.9200 6.2259
117.9300 11.2298
117.9400 6.9224
117.9500 4.3553
117.9600 2.8180
117.9700 5.1208
117.9800 5.5702
117.9900 9.6731
118.0000 6.7154
118.0100 14.1994
118.0200 8.9011
118.0300 7.6422
118.0400 4.2652
118.0500 11.5936
118.0600 8.8326
118.0700 9.8384
118.0800 5.2417
118.0900 6.0416
118.1000 5.3850
118.1100 11.9000
118.1200 4.2481
118.1300 4.1392
118.1400 7.2820
118.1500 4.0109
118.1600 4.1786
118.1700 6.6898
118.1800 5.1359
118.1900 3.5093
118.2000 5.5875
118.2100 5.2493
118.2200 10.1180
118.2300 1.9897
118.2400 3.9881
118.2500 1.7175
118.2600 6.1992
118.2700 2.5733
118.2800 3.8913
118.2900 7.8972
118.3000 5.5620
118.3100 9.6602
118.3200 4.6627
118.3300 2.5572
118.3400 4.5006
118.3500 6.1313
118.3600 5.9572
118.3700 8.0328
118.3800 6.2059
118.3900 3.1519
118.4000 4.9228
118.4100 7.9612
118.4200 3.8460
118.4300 12.7871
118.4400 7.6300
118.4500 6.2111
118.4600 5.9503
118.4700 5.3183
118.4800 5.8867
118.4900 4.3688
118.5000 5.7677
118.5100 3.8768
118.5200 5.8785
118.5300 5.0578
118.5400 7.1081
118.5500 8.2789
118.5600 2.5377
118.5700 4.9810
118.5800 3.9138
118.5900 3.5414
118.6000 5.5980
118.6100 3.0774
118.6200 7.0162
118.6300 1.6053
118.6400 4.3481
118.6500 5.3585
118.6600 7.1579
118.6700 2.9271
118.6800 9.6141
118.6900 8.7035
118.7000 14.0291
118.7100 7.8834
118.7200 15.8372
118.7300 4.4412
118.7400 15.1561
118.7500 3.6854
118.7600 9.0187
118.7700 10.2750
118.7800 7.3784
118.7900 7.3151
118.8000 3.2406
118.8100 6.9378
118.8200 8.9236
118.8300 10.4527
118.8400 4.2543
118.8500 8.9128
118.8600 5.7287
118.8700 3.1053
118.8800 4.2976
118.8900 5.4312
118.9000 5.2760
118.9100 5.8426
118.9200 3.6491
118.9300 10.0070
118.9400 11.1126
118.9500 9.8133
118.9600 9.2047
118.9700 6.2073
118.9800 2.1644
118.9900 7.0048
119.0000 6.2339
119.0100 8.1543
119.0200 9.5183
119.0300 4.1564
119.0400 2.7357
119.0500 7.3785
119.0600 4.9926
119.0700 9.7614
119.0800 0.4771
119.0900 8.4448
119.1000 7.2318
119.1100 9.5859
119.1200 6.7221
119.1300 6.8371
119.1400 7.9944
119.1500 8.0540
119.1600 8.4845
119.1700 4.8099
119.1800 4.4816
119.1900 10.7449
119.2000 11.2322
119.2100 12.2903
119.2200 5.7795
119.2300 8.1696
119.2400 3.8029
119.2500 6.8307
119.2600 1.9962
119.2700 8.5197
119.2800 5.0638
119.2900 8.6336
119.3000 5.2032
119.3100 9.3839
119.3200 8.4959
119.3300 6.4899
119.3400 4.7463
119.3500 5.4706
119.3600 7.3454
119.3700 12.5204
119.3800 8.9709
119.3900 12.6686
119.4000 15.4344
119.4100 8.1519
119.4200 10.6099
119.4300 7.1947
119.4400 11.2327
119.4500 4.9708
119.4600 6.9468
119.4700 7.4151
119.4800 5.8062
119.4900 7.6008
119.5000 7.0222
119.5100 8.0357
119.5200 2.5915
119.5300 5.9101
119.5400 5.8788
119.5500 7.4610
119.5600 7.0412
119.5700 3.5951
119.5800 5.2534
119.5900 2.2238
119.6000 3.9273
119.6100 9.5001
119.6200 6.1837
119.6300 11.3394
119.6400 3.9091
119.6500 18.8822
119.6600 3.4290
119.6700 9.6117
119.6800 6.4812
119.6900 7.4785
119.7000 6.0612
119.7100 3.5388
119.7200 4.1884
119.7300 3.0688
119.7400 10.0008
119.7500 4.6668
119.7600 9.1872
119.7700 8.8916
119.7800 5.7987
119.7900 6.3081
119.8000 7.8045
119.8100 9.9270
119.8200 8.1737
119.8300 6.9590
119.8400 7.5377
119.8500 5.2382
119.8600 5.5734
119.8700 4.6436
119.8800 7.8514
119.8900 7.2563
119.9000 5.8314
119.9100 6.7887
119.9200 5.4073
119.9300 6.7741
119.9400 9.4112
119.9500 5.8382
119.9600 7.9983
119.9700 9.2176
119.9800 6.3836
119.9900 6.7910
