#Collected Data-40
#Intensity_unit=counts
#Attenuator_coefficient=1.000000
40.0000 4.2196
40.0100 11.7640
40.0200 8.9527
40.0300 6.3183
40.0400 6.3707
40.0500 5.1414
40.0600 4.2773
40.0700 5.9009
40.0800 4.0125
40.0900 10.0099
40.1000 7.9319
40.1100 7.7623
40.1200 6.2686
40.1300 4.8289
40.1400 5.6625
40.1500 6.3822
40.1600 6.2124
40.1700 9.9633
40.1800 2.4532
40.1900 10.2383
40.2000 7.5937
40.2100 9.8943
40.2200 12.9090
40.2300 6.1546
40.2400 5.0878
40.2500 8.0687
40.2600 9.2866
40.2700 4.4121
40.2800 4.7581
40.2900 6.6755
40.3000 9.2751
40.3100 5.0920
40.3200 7.8646
40.3300 10.5973
40.3400 11.2247
40.3500 11.5142
40.3600 7.7235
40.3700 7.5281
40.3800 8.3312
40.3900 11.1482
40.4000 3.6849
40.4100 8.9192
40.4200 10.0087
40.4300 9.7998
40.4400 13.7572
40.4500 9.4915
40.4600 12.6413
40.4700 13.8707
40.4800 8.1877
40.4900 9.5298
40.5000 9.0736
40.5100 7.6909
40.5200 12.6001
40.5300 9.7159
40.5400 13.5930
40.5500 8.3434
40.5600 11.4691
40.5700 11.1354
40.5800 6.5040
40.5900 13.4412
40.6000 8.5026
40.6100 9.7961
40.6200 11.1795
40.6300 10.7392
40.6400 7.5365
40.6500 9.8462
40.6600 14.2545
40.6700 7.1899
40.6800 12.3443
40.6900 9.3068
40.7000 8.2988
40.7100 10.2987
40.7200 10.7543
40.7300 6.9907
40.7400 8.8622
40.7500 10.1764
40.7600 6.7731
40.7700 8.1949
40.7800 7.0987
40.7900 4.2333
40.8000 4.4429
40.8100 4.2038
40.8200 8.2982
40.8300 10.1044
40.8400 3.2721
40.8500 6.0275
40.8600 4.7898
40.8700 4.4226
40.8800 7.2498
40.8900 6.9940
40.9000 9.0376
40.9100 5.9919
40.9200 11.9132
40.9300 9.3252
40.9400 6.3971
40.9500 4.7076
40.9600 7.6406
40.9700 9.7077
40.9800 7.5675
40.9900 15.9619
41.0000 5.4818
41.0100 7.3230
41.0200 8.6107
41.0300 5.7658
41.0400 5.1118
41.0500 6.9945
41.0600 8.3466
41.0700 8.8928
41.0800 0.7316
41.0900 3.5780
41.1000 9.2632
41.1100 3.4008
41.1200 4.1764
41.1300 2.7655
41.1400 10.0398
41.1500 7.6781
41.1600 5.3989
41.1700 5.9859
41.1800 12.2679
41.1900 11.1435
41.2000 9.9239
41.2100 8.4954
41.2200 9.8969
41.2300 6.4389
41.2400 5.3050
41.2500 5.0242
41.2600 8.9229
41.2700 7.8510
41.2800 7.1419
41.2900 9.4808
41.3000 6.4022
41.3100 6.3752
41.3200 3.2939
41.3300 3.2246
41.3400 8.7015
41.3500 6.6854
41.3600 6.9961
41.3700 4.6457
41.3800 6.9939
41.3900 5.1339
41.4000 5.1071
41.4100 8.6595
41.4200 8.6498
41.4300 6.9718
41.4400 4.1529
41.4500 6.0806
41.4600 3.0353
41.4700 6.9219
41.4800 6.0959
41.4900 6.3677
41.5000 5.7673
41.5100 3.8905
41.5200 7.1822
41.5300 13.3655
41.5400 7.1884
41.5500 9.4895
41.5600 5.5472
41.5700 3.8322
41.5800 6.1508
41.5900 7.5970
41.6000 7.7685
41.6100 14.0257
41.6200 3.2202
41.6300 7.6704
41.6400 8.3001
41.6500 9.8964
41.6600 5.3127
41.6700 3.8274
41.6800 5.6562
41.6900 7.1229
41.7000 10.9556
41.7100 7.9071
41.7200 7.8479
41.7300 8.9290
41.7400 10.2542
41.7500 5.6829
41.7600 9.8862
41.7700 7.6080
41.7800 10.4355
41.7900 6.6856
41.8000 7.6679
41.8100 4.1951
41.8200 6.1329
41.8300 6.0900
41.8400 8.8255
41.8500 12.4104
41.8600 8.2379
41.8700 8.5605
41.8800 7.3943
41.8900 10.5773
41.9000 7.8742
41.9100 8.5021
41.9200 7.4915
41.9300 6.3448
41.9400 6.4576
41.9500 2.2514
41.9600 5.6307
41.9700 11.2706
41.9800 7.2139
41.9900 3.7164
42.0000 8.3538
42.0100 3.5344
42.0200 6.9152
42.0300 9.5983
42.0400 9.9375
42.0500 4.7952
42.0600 11.1234
42.0700 12.1989
42.0800 7.0504
42.0900 7.6370
42.1000 6.8099
42.1100 7.3439
42.1200 4.9135
42.1300 6.8732
42.1400 5.4580
42.1500 7.0926
42.1600 5.3838
42.1700 1.8437
42.1800 3.1998
42.1900 4.2446
42.2000 5.2114
42.2100 6.2881
42.2200 5.1728
42.2300 6.2496
42.2400 4.0584
42.2500 7.6593
42.2600 2.0662
42.2700 7.0205
42.2800 4.8333
42.2900 5.1844
42.3000 3.0304
42.3100 4.7430
42.3200 3.9464
42.3300 6.9622
42.3400 7.8486
42.3500 9.8798
42.3600 6.0684
42.3700 8.7967
42.3800 6.2581
42.3900 4.4838
42.4000 4.1307
42.4100 3.1109
42.4200 5.8904
42.4300 5.1920
42.4400 8.8364
42.4500 4.2538
42.4600 8.0570
42.4700 3.6356
42.4800 3.9936
42.4900 7.1087
42.5000 4.7410
42.5100 3.8212
42.5200 5.1289
42.5300 5.3739
42.5400 6.6048
42.5500 5.4760
42.5600 9.8294
42.5700 5.3515
42.5800 8.8423
42.5900 5.6188
42.6000 4.1204
42.6100 6.3833
42.6200 3.9785
42.6300 6.2972
42.6400 8.4960
42.6500 4.7021
42.6600 5.8195
42.6700 7.2908
42.6800 10.9849
42.6900 4.7795
42.7000 4.2464
42.7100 6.8219
42.7200 5.4038
42.7300 5.0734
42.7400 4.5306
42.7500 7.3069
42.7600 9.2599
42.7700 4.5483
42.7800 3.5779
42.7900 7.6410
42.8000 4.5401
42.8100 6.2126
42.8200 8.1825
42.8300 9.3042
42.8400 9.4403
42.8500 13.2020
42.8600 3.2324
42.8700 4.7887
42.8800 3.8710
42.8900 3.3724
42.9000 9.0831
42.9100 3.4228
42.9200 7.5659
42.9300 7.6568
42.9400 2.8638
42.9500 4.1215
42.9600 4.9521
42.9700 5.7672
42.9800 7.1981
42.9900 6.1669
43.0000 7.8967
43.0100 4.3807
43.0200 3.1010
43.0300 6.9153
43.0400 5.9542
43.0500 8.1097
43.0600 7.5180
43.0700 5.2676
43.0800 7.4710
43.0900 8.4087
43.1000 11.1535
43.1100 9.2350
43.1200 7.8490
43.1300 7.3237
43.1400 5.4665
43.1500 9.1301
43.1600 4.5682
43.1700 8.1706
43.1800 8.4432
43.1900 10.9492
43.2000 7.7972
43.2100 7.3095
43.2200 6.3927
43.2300 11.6512
43.2400 3.6114
43.2500 6.9592
43.2600 2.2535
43.2700 4.4665
43.2800 8.4303
43.2900 7.1620
43.3000 8.4090
43.3100 3.7798
43.3200 5.1712
43.3300 5.0761
43.3400 5.1433
43.3500 5.1498
43.3600 3.3483
43.3700 3.8446
43.3800 5.9488
43.3900 2.6288
43.4000 6.5818
43.4100 3.8934
43.4200 3.3177
43.4300 5.8001
43.4400 8.3090
43.4500 1.7828
43.4600 7.1147
43.4700 5.9563
43.4800 5.2961
43.4900 8.2934
43.5000 6.2791
43.5100 5.0512
43.5200 6.1080
43.5300 9.6926
43.5400 8.0388
43.5500 5.0263
43.5600 3.1101
43.5700 6.2572
43.5800 7.1683
43.5900 5.5692
43.6000 7.9706
43.6100 10.0768
43.6200 11.1069
43.6300 8.8151
43.6400 5.8147
43.6500 9.2110
43.6600 8.2314
43.6700 7.7462
43.6800 5.5022
43.6900 8.3007
43.7000 10.7929
43.7100 8.0664
43.7200 4.3781
43.7300 6.1731
43.7400 4.7708
43.7500 3.8413
43.7600 10.2353
43.7700 4.7731
43.7800 13.5786
43.7900 8.3705
43.8000 6.4521
43.8100 8.1984
43.8200 13.4606
43.8300 9.2529
43.8400 10.0326
43.8500 8.3031
43.8600 8.6258
43.8700 4.2754
43.8800 10.0789
43.8900 7.7315
43.9000 10.4596
43.9100 7.8729
43.9200 9.3112
43.9300 9.5709
43.9400 7.8454
43.9500 9.1540
43.9600 6.8021
43.9700 11.1883
43.9800 5.5929
43.9900 10.0438
44.0000 7.6001
44.0100 8.3474
44.0200 11.7159
44.0300 12.8988
44.0400 10.9804
44.0500 12.7335
44.0600 6.0741
44.0700 6.1782
44.0800 10.4623
44.0900 7.4827
44.1000 11.7828
44.1100 4.0220
44.1200 9.8144
44.1300 11.8368
44.1400 8.5509
44.1500 5.1264
44.1600 9.8578
44.1700 11.7367
44.1800 12.4030
44.1900 17.6924
44.2000 12.7632
44.2100 17.2483
44.2200 13.8417
44.2300 15.5626
44.2400 14.8412
44.2500 22.7384
44.2600 18.8763
44.2700 21.4701
44.2800 19.4846
44.2900 14.9228
44.3000 25.0987
44.3100 31.0475
44.3200 36.2355
44.3300 41.3792
44.3400 30.8285
44.3500 46.2291
44.3600 56.3409
44.3700 53.2579
44.3800 92.2472
44.3900 97.7813
44.4000 101.7362
44.4100 95.7890
44.4200 79.6631
44.4300 100.0186
44.4400 114.1243
44.4500 138.9616
44.4600 162.3171
44.4700 169.8626
44.4800 174.8606
44.4900 157.4435
44.5000 174.6915
44.5100 150.1146
44.5200 165.6540
44.5300 152.7619
44.5400 165.3849
44.5500 149.0941
44.5600 151.0286
44.5700 138.3710
44.5800 150.8381
44.5900 129.1722
44.6000 108.5939
44.6100 83.8620
44.6200 109.2117
44.6300 71.7412
44.6400 74.6301
44.6500 64.5540
44.6600 55.7979
44.6700 57.6119
44.6800 45.9144
44.6900 45.3181
44.7000 34.4032
44.7100 27.2527
44.7200 32.3892
44.7300 26.4024
44.7400 19.5728
44.7500 16.4223
44.7600 19.8711
44.7700 18.8384
44.7800 12.3131
44.7900 18.6855
44.8000 19.9693
44.8100 15.6686
44.8200 13.5718
44.8300 10.1400
44.8400 8.1796
44.8500 10.6986
44.8600 12.6188
44.8700 13.2486
44.8800 19.0633
44.8900 27.7142
44.9000 13.4553
44.9100 25.1884
44.9200 11.9231
44.9300 8.8178
44.9400 14.0991
44.9500 7.4619
44.9600 8.4620
44.9700 6.3878
44.9800 11.7059
44.9900 7.7237
45.0000 12.1603
45.0100 4.5453
45.0200 9.8311
45.0300 3.4980
45.0400 7.8094
45.0500 9.0265
45.0600 4.2204
45.0700 6.5837
45.0800 6.6458
45.0900 8.7944
45.1000 4.3004
45.1100 7.9249
45.1200 8.1666
45.1300 5.2670
45.1400 3.6993
45.1500 8.8775
45.1600 9.8851
45.1700 10.2990
45.1800 6.3261
45.1900 7.7280
45.2000 9.3705
45.2100 9.6804
45.2200 7.5584
45.2300 11.7118
45.2400 9.8160
45.2500 6.2940
45.2600 6.8010
45.2700 6.8759
45.2800 6.1426
45.2900 9.2553
45.3000 8.5542
45.3100 6.7374
45.3200 9.5216
45.3300 8.8629
45.3400 9.9585
45.3500 4.6089
45.3600 3.4893
45.3700 6.5189
45.3800 6.3641
45.3900 3.9714
45.4000 10.7630
45.4100 12.5937
45.4200 4.4557
45.4300 5.6178
45.4400 9.9209
45.4500 4.9862
45.4600 8.1950
45.4700 4.0992
45.4800 5.0118
45.4900 6.9944
45.5000 9.9972
45.5100 3.5458
45.5200 10.3190
45.5300 4.4579
45.5400 5.9179
45.5500 4.6902
45.5600 10.2037
45.5700 4.4833
45.5800 9.2011
45.5900 4.8729
45.6000 6.1388
45.6100 4.4886
45.6200 4.7773
45.6300 3.7356
45.6400 11.6574
45.6500 6.3986
45.6600 8.2485
45.6700 6.1062
45.6800 2.4963
45.6900 11.7086
45.7000 8.1542
45.7100 3.9294
45.7200 8.8812
45.7300 6.6030
45.7400 6.4330
45.7500 4.4956
45.7600 4.7119
45.7700 4.1786
45.7800 7.6028
45.7900 5.3754
45.8000 9.1687
45.8100 11.7009
45.8200 4.8306
45.8300 4.1278
45.8400 12.0429
45.8500 3.2474
45.8600 1.9249
45.8700 2.9447
45.8800 2.1444
45.8900 5.3207
45.9000 9.4626
45.9100 8.2371
45.9200 6.3615
45.9300 2.2053
45.9400 7.1705
45.9500 5.8308
45.9600 7.0676
45.9700 3.6065
45.9800 6.0329
45.9900 6.7204
46.0000 8.8658
46.0100 6.5808
46.0200 6.2068
46.0300 2.2734
46.0400 2.8477
46.0500 5.8348
46.0600 7.5769
46.0700 3.8343
46.0800 3.5487
46.0900 8.1487
46.1000 7.0857
46.1100 4.1664
46.1200 3.3273
46.1300 4.2044
46.1400 3.5830
46.1500 2.0186
46.1600 6.1867
46.1700 10.5684
46.1800 4.9348
46.1900 6.6901
46.2000 3.0238
46.2100 2.4334
46.2200 4.8813
46.2300 6.3973
46.2400 4.3948
46.2500 4.6830
46.2600 7.6951
46.2700 4.2018
46.2800 6.9347
46.2900 13.2811
46.3000 7.5845
46.3100 15.4446
46.3200 9.1225
46.3300 9.4817
46.3400 10.7028
46.3500 5.5096
46.3600 9.2707
46.3700 4.9387
46.3800 7.3295
46.3900 7.0955
46.4000 7.2837
46.4100 9.1690
46.4200 4.9108
46.4300 5.9182
46.4400 10.6029
46.4500 4.1544
46.4600 4.1998
46.4700 5.6138
46.4800 3.8381
46.4900 6.8134
46.5000 6.2691
46.5100 7.4290
46.5200 8.4371
46.5300 10.9394
46.5400 6.2267
46.5500 4.3274
46.5600 5.9407
46.5700 6.3604
46.5800 4.3464
46.5900 7.1701
46.6000 7.3857
46.6100 8.4446
46.6200 9.4277
46.6300 2.8129
46.6400 10.0859
46.6500 5.5738
46.6600 8.1925
46.6700 3.7209
46.6800 6.0606
46.6900 5.7668
46.7000 8.3038
46.7100 8.3373
46.7200 8.9446
46.7300 7.5949
46.7400 4.3215
46.7500 6.4700
46.7600 2.0142
46.7700 4.8924
46.7800 5.8025
46.7900 6.8351
46.8000 10.5866
46.8100 8.8981
46.8200 7.5474
46.8300 4.3534
46.8400 6.0678
46.8500 2.6996
46.8600 1.5054
46.8700 8.8626
46.8800 8.3456
46.8900 4.9677
46.9000 5.1367
46.9100 3.6679
46.9200 9.4133
46.9300 5.8719
46.9400 12.2028
46.9500 9.0822
46.9600 10.5150
46.9700 8.3176
46.9800 8.4333
46.9900 9.6231
47.0000 11.0826
47.0100 8.6634
47.0200 5.8531
47.0300 8.4774
47.0400 6.5434
47.0500 9.8588
47.0600 5.8156
47.0700 12.5134
47.0800 4.9583
47.0900 10.6902
47.1000 10.2797
47.1100 6.3978
47.1200 8.5761
47.1300 5.5749
47.1400 11.5896
47.1500 4.4477
47.1600 3.9091
47.1700 4.6243
47.1800 6.8035
47.1900 6.4589
47.2000 9.1501
47.2100 6.3218
47.2200 5.3783
47.2300 6.3918
47.2400 9.6560
47.2500 7.7939
47.2600 7.6151
47.2700 10.9562
47.2800 6.7459
47.2900 9.8371
47.3000 7.7286
47.3100 9.5003
47.3200 16.6536
47.3300 10.6322
47.3400 11.8729
47.3500 6.5508
47.3600 9.3114
47.3700 3.0872
47.3800 7.6056
47.3900 8.0653
47.4000 2.7454
47.4100 5.9306
47.4200 6.3903
47.4300 2.9044
47.4400 6.5045
47.4500 6.1495
47.4600 5.4593
47.4700 6.1612
47.4800 3.7890
47.4900 9.7914
47.5000 7.2146
47.5100 5.7129
47.5200 6.2094
47.5300 7.3209
47.5400 14.0282
47.5500 10.2306
47.5600 9.4709
47.5700 8.8043
47.5800 2.1808
47.5900 9.9123
47.6000 4.5562
47.6100 9.6294
47.6200 5.7008
47.6300 8.9469
47.6400 3.1293
47.6500 3.4130
47.6600 3.9295
47.6700 10.9783
47.6800 8.3336
47.6900 6.1566
47.7000 5.8824
47.7100 11.1528
47.7200 3.8177
47.7300 7.4933
47.7400 6.3164
47.7500 6.4565
47.7600 7.4973
47.7700 3.4440
47.7800 5.0396
47.7900 7.0374
47.8000 5.2842
47.8100 5.6450
47.8200 7.3914
47.8300 3.6865
47.8400 10.8204
47.8500 4.6179
47.8600 8.2926
47.8700 8.2420
47.8800 9.3521
47.8900 7.2932
47.9000 5.3178
47.9100 5.6949
47.9200 6.7738
47.9300 8.5054
47.9400 8.1383
47.9500 8.9126
47.9600 7.5962
47.9700 3.4294
47.9800 3.5566
47.9900 3.1328
48.0000 5.2754
48.0100 11.0297
48.0200 3.5908
48.0300 10.4803
48.0400 5.4742
48.0500 5.1886
48.0600 8.4457
48.0700 7.1938
48.0800 7.3304
48.0900 7.3311
48.1000 8.1190
48.1100 9.8608
48.1200 9.7973
48.1300 9.1537
48.1400 5.3011
48.1500 5.5768
48.1600 8.1779
48.1700 6.6423
48.1800 5.2241
48.1900 3.2434
48.2000 5.9268
48.2100 5.1668
48.2200 7.0595
48.2300 3.1179
48.2400 5.0062
48.2500 5.5102
48.2600 3.2916
48.2700 7.3665
48.2800 4.6123
48.2900 8.2458
48.3000 7.8487
48.3100 6.3115
48.3200 8.6079
48.3300 5.5827
48.3400 8.2219
48.3500 10.9793
48.3600 3.3984
48.3700 2.8903
48.3800 3.3546
48.3900 5.6788
48.4000 3.0972
48.4100 5.9084
48.4200 5.2864
48.4300 7.2646
48.4400 3.1834
48.4500 3.6429
48.4600 10.3690
48.4700 9.7143
48.4800 4.6463
48.4900 7.6754
48.5000 3.2049
48.5100 7.3057
48.5200 4.1394
48.5300 4.2269
48.5400 5.3902
48.5500 4.4987
48.5600 6.0339
48.5700 4.3910
48.5800 5.6922
48.5900 5.0507
48.6000 5.2043
48.6100 8.0724
48.6200 10.1805
48.6300 6.2622
48.6400 2.0807
48.6500 5.4576
48.6600 5.7785
48.6700 2.0552
48.6800 8.2672
48.6900 6.6219
48.7000 6.8293
48.7100 7.7515
48.7200 14.5608
48.7300 9.9742
48.7400 3.3670
48.7500 8.0766
48.7600 7.4083
48.7700 5.2085
48.7800 4.2161
48.7900 6.4066
48.8000 5.3924
48.8100 3.8470
48.8200 3.3317
48.8300 4.9274
48.8400 4.3719
48.8500 6.9568
48.8600 2.8755
48.8700 4.3721
48.8800 2.3465
48.8900 4.9281
48.9000 5.8904
48.9100 5.4739
48.9200 3.8869
48.9300 3.0507
48.9400 8.0460
48.9500 11.1924
48.9600 4.1731
48.9700 8.6188
48.9800 3.4061
48.9900 4.2155
49.0000 3.7285
49.0100 6.1878
49.0200 4.2581
49.0300 3.1807
49.0400 5.2294
49.0500 5.1266
49.0600 7.6912
49.0700 8.1766
49.0800 9.3256
49.0900 14.3060
49.1000 7.0295
49.1100 8.3913
49.1200 6.7091
49.1300 6.5520
49.1400 7.4234
49.1500 10.8311
49.1600 3.4999
49.1700 5.1582
49.1800 6.6225
49.1900 6.3663
49.2000 1.9020
49.2100 5.4195
49.2200 6.8013
49.2300 11.4851
49.2400 3.4458
49.2500 12.6479
49.2600 3.2417
49.2700 7.3960
49.2800 7.2679
49.2900 10.1238
49.3000 7.7336
49.3100 7.8033
49.3200 4.9865
49.3300 3.8925
49.3400 3.2443
49.3500 10.5169
49.3600 4.2571
49.3700 7.8521
49.3800 4.2868
49.3900 6.1739
49.4000 6.5430
49.4100 2.9732
49.4200 10.4520
49.4300 5.2608
49.4400 3.8886
49.4500 2.7480
49.4600 5.6960
49.4700 3.4619
49.4800 4.9632
49.4900 8.9495
49.5000 2.4725
49.5100 7.6719
49.5200 6.1535
49.5300 11.9999
49.5400 7.3761
49.5500 4.2802
49.5600 5.1442
49.5700 5.0462
49.5800 4.1625
49.5900 7.7352
49.6000 3.3079
49.6100 5.7436
49.6200 6.1618
49.6300 4.3095
49.6400 5.7817
49.6500 5.5983
49.6600 3.6742
49.6700 7.0476
49.6800 4.8662
49.6900 6.2123
49.7000 5.0713
49.7100 4.3416
49.7200 4.3065
49.7300 6.9249
49.7400 3.9202
49.7500 2.7103
49.7600 3.9775
49.7700 4.7771
49.7800 6.6752
49.7900 3.4015
49.8000 5.1678
49.8100 5.1864
49.8200 1.7946
49.8300 3.0591
49.8400 4.3374
49.8500 6.0937
49.8600 11.0087
49.8700 4.9805
49.8800 6.5637
49.8900 4.3001
49.9000 6.1818
49.9100 2.2830
49.9200 8.7517
49.9300 4.6418
49.9400 3.4115
49.9500 3.3758
49.9600 3.3892
49.9700 8.1084
49.9800 5.5504
49.9900 11.7314
50.0000 3.1455
50.0100 10.3036
50.0200 5.8899
50.0300 9.7641
50.0400 7.0048
50.0500 6.5312
50.0600 3.6027
50.0700 5.8604
50.0800 5.3880
50.0900 4.9935
50.1000 6.4447
50.1100 5.3020
50.1200 6.4864
50.1300 9.0756
50.1400 4.8381
50.1500 3.6580
50.1600 4.3529
50.1700 8.3823
50.1800 9.7294
50.1900 7.0072
50.2000 6.5257
50.2100 5.7709
50.2200 6.3801
50.2300 3.0859
50.2400 3.4685
50.2500 5.6084
50.2600 5.7068
50.2700 2.9708
50.2800 4.4996
50.2900 6.3197
50.3000 6.9417
50.3100 5.6351
50.3200 7.5123
50.3300 7.5079
50.3400 4.9682
50.3500 3.1655
50.3600 3.9021
50.3700 3.6996
50.3800 4.7110
50.3900 3.9972
50.4000 6.8015
50.4100 4.7805
50.4200 3.6560
50.4300 6.8531
50.4400 7.7613
50.4500 7.2923
50.4600 7.4758
50.4700 5.3787
50.4800 7.7902
50.4900 5.2412
50.5000 5.4420
50.5100 4.7550
50.5200 9.2865
50.5300 9.8285
50.5400 10.5826
50.5500 6.0569
50.5600 8.9025
50.5700 4.3783
50.5800 2.3901
50.5900 4.1609
50.6000 5.2470
50.6100 3.9444
50.6200 2.7149
50.6300 7.4083
50.6400 5.4167
50.6500 6.0800
50.6600 3.6983
50.6700 6.0137
50.6800 7.7764
50.6900 3.9343
50.7000 1.7187
50.7100 4.7371
50.7200 6.7278
50.7300 4.4116
50.7400 3.9800
50.7500 3.2956
50.7600 6.9817
50.7700 8.0523
50.7800 3.7267
50.7900 5.1155
50.8000 9.3761
50.8100 5.5797
50.8200 6.9068
50.8300 3.0152
50.8400 6.3362
50.8500 5.3456
50.8600 6.5118
50.8700 3.5280
50.8800 5.7413
50.8900 13.0868
50.9000 7.3990
50.9100 5.3301
50.9200 5.6942
50.9300 4.7304
50.9400 4.2006
50.9500 4.9555
50.9600 8.3602
50.9700 7.3256
50.9800 6.8784
50.9900 6.4982
51.0000 4.5206
51.0100 7.3352
51.0200 5.3489
51.0300 13.3177
51.0400 6.7273
51.0500 5.7671
51.0600 8.8497
51.0700 4.5582
51.0800 7.4314
51.0900 9.9168
51.1000 9.0019
51.1100 7.3002
51.1200 5.6966
51.1300 9.8566
51.1400 7.5234
51.1500 8.0447
51.1600 10.3375
51.1700 8.0630
51.1800 10.1468
51.1900 7.1284
51.2000 11.0883
51.2100 7.1920
51.2200 8.3465
51.2300 10.0529
51.2400 5.2409
51.2500 5.9087
51.2600 7.5688
51.2700 10.3857
51.2800 7.6647
51.2900 8.1306
51.3000 3.6496
51.3100 1.0806
51.3200 2.2662
51.3300 11.3502
51.3400 9.3251
51.3500 6.6606
51.3600 6.9932
51.3700 11.1154
51.3800 3.9683
51.3900 8.5013
51.4000 5.5564
51.4100 6.5335
51.4200 7.3297
51.4300 6.9527
51.4400 6.0403
51.4500 5.4123
51.4600 10.4884
51.4700 9.6851
51.4800 8.9537
51.4900 10.2634
51.5000 3.4606
51.5100 9.4985
51.5200 10.4563
51.5300 10.4987
51.5400 3.8478
51.5500 6.0728
51.5600 2.5287
51.5700 4.8834
51.5800 3.0203
51.5900 8.9557
51.6000 8.3294
51.6100 3.3358
51.6200 4.4610
51.6300 6.2743
51.6400 5.4477
51.6500 9.1197
51.6600 16.2997
51.6700 6.9671
51.6800 7.4508
51.6900 8.1735
51.7000 5.6256
51.7100 9.2782
51.7200 6.3615
51.7300 9.2492
51.7400 5.7933
51.7500 5.3470
51.7600 5.1029
51.7700 3.6252
51.7800 8.9934
51.7900 10.6569
51.8000 4.6749
51.8100 8.2021
51.8200 6.3964
51.8300 5.1145
51.8400 10.5701
51.8500 6.4486
51.8600 4.6236
51.8700 7.9621
51.8800 5.9049
51.8900 4.4476
51.9000 4.9752
51.9100 9.1732
51.9200 3.1551
51.9300 1.1963
51.9400 7.2786
51.9500 10.0664
51.9600 9.0960
51.9700 10.1853
51.9800 5.5021
51.9900 2.5748
52.0000 4.9578
52.0100 10.5980
52.0200 12.1785
52.0300 7.2700
52.0400 6.6338
52.0500 8.6424
52.0600 4.0843
52.0700 8.1252
52.0800 8.2548
52.0900 5.7528
52.1000 9.9204
52.1100 5.6833
52.1200 5.7896
52.1300 10.3037
52.1400 6.1202
52.1500 6.4183
52.1600 4.9519
52.1700 7.9337
52.1800 9.5656
52.1900 6.5569
52.2000 3.4250
52.2100 5.0344
52.2200 7.6669
52.2300 5.4447
52.2400 5.0210
52.2500 7.4337
52.2600 13.5979
52.2700 7.9889
52.2800 9.0182
52.2900 8.9029
52.3000 4.0661
52.3100 5.6203
52.3200 6.2192
52.3300 8.1052
52.3400 7.7124
52.3500 6.1603
52.3600 6.2588
52.3700 7.8415
52.3800 5.4267
52.3900 3.6839
52.4000 4.9732
52.4100 4.1420
52.4200 2.7342
52.4300 2.2592
52.4400 3.0175
52.4500 10.8893
52.4600 7.9403
52.4700 5.3758
52.4800 4.9221
52.4900 6.7844
52.5000 3.6796
52.5100 3.6556
52.5200 5.3881
52.5300 2.7768
52.5400 6.5237
52.5500 1.7335
52.5600 6.9710
52.5700 6.9893
52.5800 4.4081
52.5900 2.6821
52.6000 5.6123
52.6100 5.3810
52.6200 7.4783
52.6300 7.9671
52.6400 5.6683
52.6500 6.5302
52.6600 2.1481
52.6700 2.3637
52.6800 5.3998
52.6900 4.9990
52.7000 6.6834
52.7100 7.8700
52.7200 7.8634
52.7300 2.8956
52.7400 3.4452
52.7500 5.9770
52.7600 7.7493
52.7700 6.5357
52.7800 10.7368
52.7900 2.5510
52.8000 5.7498
52.8100 9.4432
52.8200 9.8402
52.8300 5.3805
52.8400 8.8662
52.8500 7.6300
52.8600 6.5955
52.8700 6.2517
52.8800 5.0597
52.8900 3.4204
52.9000 4.9151
52.9100 7.3226
52.9200 4.1031
52.9300 6.7215
52.9400 1.1208
52.9500 4.8256
52.9600 4.5871
52.9700 3.7293
52.9800 4.3688
52.9900 3.2748
53.0000 8.4742
53.0100 1.6889
53.0200 8.6541
53.0300 7.6422
53.0400 3.9115
53.0500 8.5256
53.0600 3.4096
53.0700 5.9029
53.0800 5.3369
53.0900 8.7545
53.1000 10.3635
53.1100 6.7079
53.1200 4.0493
53.1300 5.7201
53.1400 7.0019
53.1500 3.1440
53.1600 9.3766
53.1700 7.6394
53.1800 10.0503
53.1900 3.4092
53.2000 4.9050
53.2100 2.5130
53.2200 4.5299
53.2300 7.9995
53.2400 5.6279
53.2500 4.3926
53.2600 8.4625
53.2700 5.4283
53.2800 9.1374
53.2900 5.5548
53.3000 9.2012
53.3100 7.5745
53.3200 5.3123
53.3300 8.6396
53.3400 5.6041
53.3500 5.7709
53.3600 5.3743
53.3700 8.6011
53.3800 6.9051
53.3900 5.1062
53.4000 3.3035
53.4100 5.1047
53.4200 6.4199
53.4300 6.6272
53.4400 11.5825
53.4500 8.8893
53.4600 10.5833
53.4700 2.4272
53.4800 9.2459
53.4900 4.3825
53.5000 7.6633
53.5100 5.3076
53.5200 4.3014
53.5300 4.3903
53.5400 5.6368
53.5500 8.3059
53.5600 5.2740
53.5700 7.6504
53.5800 1.7648
53.5900 2.1763
53.6000 3.8245
53.6100 3.2841
53.6200 10.0803
53.6300 6.7829
53.6400 12.9750
53.6500 8.8513
53.6600 8.2631
53.6700 7.0306
53.6800 8.5341
53.6900 4.9197
53.7000 4.9478
53.7100 6.2525
53.7200 5.2445
53.7300 6.4189
53.7400 6.7176
53.7500 8.3609
53.7600 13.5062
53.7700 6.3296
53.7800 10.1085
53.7900 4.8752
53.8000 6.8616
53.8100 3.5613
53.8200 7.7939
53.8300 7.7968
53.8400 11.9634
53.8500 4.6635
53.8600 7.5303
53.8700 8.1760
53.8800 8.5887
53.8900 9.6499
53.9000 5.4657
53.9100 6.5912
53.9200 7.2386
53.9300 5.3682
53.9400 6.1854
53.9500 6.6618
53.9600 5.3424
53.9700 6.9072
53.9800 5.5016
53.9900 5.9131
54.0000 6.9193
54.0100 6.3281
54.0200 3.9047
54.0300 5.1425
54.0400 13.2088
54.0500 5.0013
54.0600 4.3212
54.0700 3.9562
54.0800 8.0780
54.0900 4.8685
54.1000 5.0433
54.1100 6.7700
54.1200 5.1346
54.1300 8.8423
54.1400 7.6816
54.1500 9.0393
54.1600 7.3612
54.1700 5.7786
54.1800 8.4711
54.1900 8.8012
54.2000 11.1400
54.2100 7.4983
54.2200 5.7851
54.2300 5.0826
54.2400 7.8444
54.2500 4.2565
54.2600 7.9890
54.2700 7.6201
54.2800 5.1963
54.2900 4.4235
54.3000 4.4430
54.3100 4.4889
54.3200 5.3445
54.3300 5.8049
54.3400 4.2555
54.3500 7.2865
54.3600 11.5252
54.3700 6.3031
54.3800 7.1176
54.3900 6.5792
54.4000 3.7600
54.4100 7.6087
54.4200 8.4337
54.4300 5.0610
54.4400 11.5166
54.4500 8.7399
54.4600 5.0313
54.4700 7.0570
54.4800 4.6010
54.4900 7.3095
54.5000 5.6157
54.5100 16.7026
54.5200 4.9576
54.5300 7.4296
54.5400 4.8418
54.5500 6.0402
54.5600 2.3464
54.5700 6.6023
54.5800 7.4017
54.5900 8.7670
54.6000 7.0720
54.6100 5.5805
54.6200 11.3263
54.6300 7.4291
54.6400 4.8435
54.6500 3.8814
54.6600 7.2507
54.6700 5.1376
54.6800 8.2987
54.6900 7.1082
54.7000 8.8206
54.7100 7.1618
54.7200 6.0190
54.7300 6.9687
54.7400 6.3875
54.7500 7.0738
54.7600 7.5099
54.7700 6.3913
54.7800 5.2924
54.7900 8.8150
54.8000 5.5561
54.8100 10.5016
54.8200 4.9633
54.8300 10.8053
54.8400 11.1332
54.8500 8.2567
54.8600 13.2054
54.8700 6.6528
54.8800 4.1509
54.8900 7.1101
54.9000 4.1618
54.9100 4.6677
54.9200 6.6446
54.9300 5.7925
54.9400 6.6780
54.9500 6.0628
54.9600 7.1906
54.9700 3.7450
54.9800 7.3334
54.9900 4.4295
55.0000 8.9773
55.0100 7.1917
55.0200 5.9428
55.0300 8.1162
55.0400 7.9921
55.0500 8.9209
55.0600 5.0736
55.0700 8.1878
55.0800 2.4412
55.0900 10.5528
55.1000 9.1218
55.1100 7.3611
55.1200 6.6225
55.1300 4.1309
55.1400 9.0889
55.1500 3.8377
55.1600 6.0880
55.1700 7.3316
55.1800 3.1821
55.1900 8.2887
55.2000 5.2014
55.2100 7.6979
55.2200 7.8837
55.2300 3.0146
55.2400 3.7739
55.2500 5.6007
55.2600 5.7867
55.2700 4.4965
55.2800 4.5552
55.2900 4.1502
55.3000 3.3786
55.3100 7.7053
55.3200 8.4526
55.3300 8.1590
55.3400 7.0697
55.3500 6.9377
55.3600 11.5491
55.3700 13.6226
55.3800 7.6523
55.3900 6.5226
55.4000 9.0421
55.4100 6.1793
55.4200 8.4840
55.4300 8.9173
55.4400 5.8281
55.4500 5.6109
55.4600 7.2509
55.4700 6.2049
55.4800 4.6494
55.4900 2.1552
55.5000 5.2616
55.5100 4.4148
55.5200 6.2201
55.5300 5.5703
55.5400 2.8129
55.5500 6.3046
55.5600 6.3229
55.5700 9.7158
55.5800 8.9849
55.5900 5.8293
55.6000 3.1802
55.6100 4.9763
55.6200 4.4579
55.6300 7.6065
55.6400 7.0771
55.6500 3.0939
55.6600 8.4639
55.6700 5.9594
55.6800 6.6704
55.6900 9.5003
55.7000 9.2097
55.7100 2.6795
55.7200 8.0407
55.7300 4.2642
55.7400 12.6684
55.7500 6.2391
55.7600 5.6104
55.7700 4.9908
55.7800 7.2280
55.7900 3.7398
55.8000 5.3379
55.8100 6.2938
55.8200 4.6449
55.8300 3.0237
55.8400 7.2888
55.8500 5.3940
55.8600 7.1632
55.8700 4.6049
55.8800 8.0764
55.8900 5.3201
55.9000 4.0036
55.9100 9.9703
55.9200 6.3589
55.9300 4.5928
55.9400 5.1741
55.9500 4.1978
55.9600 5.2400
55.9700 5.4217
55.9800 7.0678
55.9900 4.2118
56.0000 5.6450
56.0100 1.0615
56.0200 4.5411
56.0300 5.1743
56.0400 5.5468
56.0500 6.0570
56.0600 1.8604
56.0700 5.7999
56.0800 8.0576
56.0900 8.3139
56.1000 8.8029
56.1100 6.3129
56.1200 5.7486
56.1300 7.4796
56.1400 9.3681
56.1500 9.0418
56.1600 5.3024
56.1700 5.0409
56.1800 4.4406
56.1900 5.2940
56.2000 4.5712
56.2100 6.2252
56.2200 7.0550
56.2300 9.2526
56.2400 7.7882
56.2500 3.6687
56.2600 2.0976
56.2700 7.2480
56.2800 9.0930
56.2900 2.8027
56.3000 6.6820
56.3100 6.7961
56.3200 6.5352
56.3300 9.1955
56.3400 6.4113
56.3500 9.1251
56.3600 4.2424
56.3700 6.2559
56.3800 7.2370
56.3900 8.1653
56.4000 5.4324
56.4100 6.0539
56.4200 5.2429
56.4300 7.4655
56.4400 5.9016
56.4500 8.3840
56.4600 3.5653
56.4700 10.6774
56.4800 4.9996
56.4900 4.5346
56.5000 5.8506
56.5100 4.5018
56.5200 3.1560
56.5300 5.3283
56.5400 8.8006
56.5500 5.8534
56.5600 10.3266
56.5700 5.1943
56.5800 13.4015
56.5900 7.6075
56.6000 13.9968
56.6100 5.7681
56.6200 8.2694
56.6300 6.9667
56.6400 5.0115
56.6500 8.2716
56.6600 9.4032
56.6700 4.5781
56.6800 9.0952
56.6900 5.0014
56.7000 1.9272
56.7100 2.9242
56.7200 7.3058
56.7300 3.7611
56.7400 5.7770
56.7500 5.8918
56.7600 3.5488
56.7700 1.9819
56.7800 0.9734
56.7900 3.4192
56.8000 5.3793
56.8100 5.5243
56.8200 6.2331
56.8300 8.4342
56.8400 5.3162
56.8500 9.0550
56.8600 5.4918
56.8700 5.2347
56.8800 5.1825
56.8900 5.1466
56.9000 10.0208
56.9100 5.1850
56.9200 3.1290
56.9300 5.1317
56.9400 6.9487
56.9500 7.8419
56.9600 5.1145
56.9700 4.9303
56.9800 4.0221
56.9900 2.4716
57.0000 5.1942
57.0100 8.2360
57.0200 5.2806
57.0300 5.8950
57.0400 6.9214
57.0500 2.4440
57.0600 4.0145
57.0700 4.0358
57.0800 2.6346
57.0900 2.5900
57.1000 2.0026
57.1100 6.0180
57.1200 1.5478
57.1300 6.2606
57.1400 6.1977
57.1500 4.2978
57.1600 7.2496
57.1700 4.5405
57.1800 11.1991
57.1900 5.8379
57.2000 3.8211
57.2100 8.8522
57.2200 8.4253
57.2300 9.6013
57.2400 8.7693
57.2500 4.8827
57.2600 3.7168
57.2700 10.8351
57.2800 4.1926
57.2900 11.4478
57.3000 5.0525
57.3100 8.6592
57.3200 5.4615
57.3300 5.3153
57.3400 4.9334
57.3500 3.2501
57.3600 2.5893
57.3700 3.7233
57.3800 4.6195
57.3900 7.0066
57.4000 6.5096
57.4100 1.0886
57.4200 11.6167
57.4300 4.5393
57.4400 8.2671
57.4500 7.0452
57.4600 10.0124
57.4700 6.2654
57.4800 5.5765
57.4900 8.5867
57.5000 8.8372
57.5100 8.6569
57.5200 10.0510
57.5300 8.8591
57.5400 7.1262
57.5500 5.6291
57.5600 6.3666
57.5700 12.2099
57.5800 8.0560
57.5900 5.3168
57.6000 5.7444
57.6100 7.3303
57.6200 7.5285
57.6300 10.0529
57.6400 2.2379
57.6500 11.0027
57.6600 7.7013
57.6700 6.0902
57.6800 7.3305
57.6900 6.6200
57.7000 5.6151
57.7100 6.5842
57.7200 8.1227
57.7300 5.0639
57.7400 5.2725
57.7500 3.4173
57.7600 5.1004
57.7700 3.6789
57.7800 5.6971
57.7900 4.5778
57.8000 5.4999
57.8100 7.9043
57.8200 8.6353
57.8300 9.8030
57.8400 7.4289
57.8500 8.2955
57.8600 4.0300
57.8700 4.6382
57.8800 4.2651
57.8900 7.7536
57.9000 6.4173
57.9100 7.6506
57.9200 7.5888
57.9300 12.5302
57.9400 5.3688
57.9500 12.9866
57.9600 6.6091
57.9700 8.3237
57.9800 6.4399
57.9900 9.4557
58.0000 4.8627
58.0100 6.0269
58.0200 7.9372
58.0300 10.0610
58.0400 7.1325
58.0500 4.1109
58.0600 11.3723
58.0700 5.7656
58.0800 7.9015
58.0900 4.5395
58.1000 7.3111
58.1100 5.5713
58.1200 4.5878
58.1300 2.0213
58.1400 7.0591
58.1500 7.4362
58.1600 7.5367
58.1700 8.4076
58.1800 10.8924
58.1900 7.2547
58.2000 4.3169
58.2100 13.1838
58.2200 7.5130
58.2300 8.2633
58.2400 7.1032
58.2500 2.0801
58.2600 10.2083
58.2700 5.2395
58.2800 5.2009
58.2900 0.1905
58.3000 3.3826
58.3100 2.5639
58.3200 8.8512
58.3300 5.9130
58.3400 4.0569
58.3500 5.7257
58.3600 5.1880
58.3700 1.9168
58.3800 3.1003
58.3900 4.1965
58.4000 3.4556
58.4100 7.5303
58.4200 8.1308
58.4300 5.7065
58.4400 7.4555
58.4500 5.8423
58.4600 5.3197
58.4700 4.8195
58.4800 7.2591
58.4900 6.3840
58.5000 4.9140
58.5100 2.4165
58.5200 3.4928
58.5300 7.0946
58.5400 3.7549
58.5500 5.7515
58.5600 8.9311
58.5700 4.7312
58.5800 8.7834
58.5900 3.4341
58.6000 9.6681
58.6100 5.8028
58.6200 8.1959
58.6300 5.6304
58.6400 6.1351
58.6500 4.1253
58.6600 3.7014
58.6700 2.6349
58.6800 7.4099
58.6900 4.5048
58.7000 7.2790
58.7100 6.7008
58.7200 6.4984
58.7300 8.4114
58.7400 6.0791
58.7500 7.2316
58.7600 4.3348
58.7700 6.8404
58.7800 4.8956
58.7900 11.9125
58.8000 4.6292
58.8100 6.4992
58.8200 6.0246
58.8300 12.0649
58.8400 4.8974
58.8500 9.9645
58.8600 4.0725
58.8700 10.3262
58.8800 5.9296
58.8900 9.1428
58.9000 4.1603
58.9100 5.5326
58.9200 2.4823
58.9300 5.8591
58.9400 6.4274
58.9500 8.1442
58.9600 4.0755
58.9700 5.7368
58.9800 4.0225
58.9900 2.9727
59.0000 6.3595
59.0100 6.5854
59.0200 5.0701
59.0300 2.2290
59.0400 5.7606
59.0500 9.9969
59.0600 9.7680
59.0700 12.4421
59.0800 6.1100
59.0900 8.3540
59.1000 4.5043
59.1100 8.2545
59.1200 4.3964
59.1300 12.2226
59.1400 5.3705
59.1500 8.7453
59.1600 7.1121
59.1700 4.2205
59.1800 4.5130
59.1900 4.8308
59.2000 2.3029
59.2100 2.8781
59.2200 4.2711
59.2300 4.2120
59.2400 6.1257
59.2500 4.3526
59.2600 8.5715
59.2700 4.8014
59.2800 4.3167
59.2900 5.4137
59.3000 5.5922
59.3100 7.5345
59.3200 7.1614
59.3300 6.0601
59.3400 5.0819
59.3500 4.5472
59.3600 3.9739
59.3700 4.9444
59.3800 5.4371
59.3900 3.7258
59.4000 6.3010
59.4100 3.6811
59.4200 6.4429
59.4300 6.6510
59.4400 4.2692
59.4500 1.5899
59.4600 6.3364
59.4700 10.5989
59.4800 8.4735
59.4900 10.2437
59.5000 5.3889
59.5100 6.4747
59.5200 4.1276
59.5300 2.1169
59.5400 5.0480
59.5500 13.1741
59.5600 7.0190
59.5700 15.9312
59.5800 7.3046
59.5900 6.7156
59.6000 6.8894
59.6100 6.9915
59.6200 2.9613
59.6300 5.4759
59.6400 6.8861
59.6500 10.3156
59.6600 5.9098
59.6700 16.2218
59.6800 7.8871
59.6900 15.4023
59.7000 7.1131
59.7100 8.0256
59.7200 9.8106
59.7300 5.6921
59.7400 16.2019
59.7500 6.2208
59.7600 6.0887
59.7700 5.8845
59.7800 8.1256
59.7900 1.4564
59.8000 3.8079
59.8100 5.1222
59.8200 6.7686
59.8300 6.9356
59.8400 7.3659
59.8500 2.5396
59.8600 7.9948
59.8700 2.0734
59.8800 2.6183
59.8900 7.8037
59.9000 8.7637
59.9100 5.5086
59.9200 9.7358
59.9300 7.6610
59.9400 10.4921
59.9500 6.2621
59.9600 3.1556
59.9700 8.2311
59.9800 4.4689
59.9900 8.7977
60.0000 6.3352
60.0100 5.8015
60.0200 2.7084
60.0300 7.7890
60.0400 9.1129
60.0500 8.2653
60.0600 6.3912
60.0700 6.2352
60.0800 3.4746
60.0900 8.3353
60.1000 10.1399
60.1100 6.0267
60.1200 3.3109
60.1300 3.7454
60.1400 4.5009
60.1500 5.8044
60.1600 5.8809
60.1700 9.2992
60.1800 3.4576
60.1900 5.1368
60.2000 4.7338
60.2100 4.7434
60.2200 8.7928
60.2300 6.7394
60.2400 8.6010
60.2500 5.7608
60.2600 6.8397
60.2700 7.2702
60.2800 5.2120
60.2900 9.7192
60.3000 8.1154
60.3100 1.9080
60.3200 6.4187
60.3300 5.0727
60.3400 5.7771
60.3500 4.6370
60.3600 10.6856
60.3700 3.0760
60.3800 9.7862
60.3900 2.4771
60.4000 13.4924
60.4100 6.9285
60.4200 13.0079
60.4300 10.4253
60.4400 7.0859
60.4500 6.7894
60.4600 8.0207
60.4700 11.4644
60.4800 5.2303
60.4900 5.1773
60.5000 3.1649
60.5100 6.2077
60.5200 4.7433
60.5300 6.6174
60.5400 8.7639
60.5500 5.8459
60.5600 9.5326
60.5700 8.7886
60.5800 7.8137
60.5900 7.4963
60.6000 7.5798
60.6100 5.3149
60.6200 10.3324
60.6300 9.3258
60.6400 6.4841
60.6500 7.1744
60.6600 8.6773
60.6700 6.7579
60.6800 5.3940
60.6900 5.3284
60.7000 9.9427
60.7100 5.1721
60.7200 6.0123
60.7300 5.1349
60.7400 6.5148
60.7500 7.1620
60.7600 6.8976
60.7700 12.8744
60.7800 5.7563
60.7900 8.7953
60.8000 8.9376
60.8100 8.6969
60.8200 10.6535
60.8300 6.4344
60.8400 17.5300
60.8500 5.6299
60.8600 13.3362
60.8700 2.1659
60.8800 8.4520
60.8900 3.4714
60.9000 8.4897
60.9100 12.7136
60.9200 3.2882
60.9300 8.7003
60.9400 5.9033
60.9500 6.8043
60.9600 8.0673
60.9700 7.0611
60.9800 4.0363
60.9900 4.6439
61.0000 7.4240
61.0100 10.4139
61.0200 6.7829
61.0300 11.3126
61.0400 7.4033
61.0500 6.0321
61.0600 8.1918
61.0700 9.1463
61.0800 5.7223
61.0900 6.4442
61.1000 4.7381
61.1100 6.1124
61.1200 3.1806
61.1300 8.9854
61.1400 4.1353
61.1500 2.4227
61.1600 8.0611
61.1700 8.0335
61.1800 5.0377
61.1900 13.0287
61.2000 8.8853
61.2100 13.4841
61.2200 5.8302
61.2300 13.3762
61.2400 7.2289
61.2500 8.7516
61.2600 4.3128
61.2700 5.1367
61.2800 4.3250
61.2900 5.9498
61.3000 6.5570
61.3100 11.3123
61.3200 10.4131
61.3300 6.8449
61.3400 4.5435
61.3500 8.4852
61.3600 3.0513
61.3700 11.9859
61.3800 8.1540
61.3900 9.5230
61.4000 3.0896
61.4100 3.4008
61.4200 5.3768
61.4300 4.1755
61.4400 7.8404
61.4500 8.7640
61.4600 5.3820
61.4700 3.9504
61.4800 8.4068
61.4900 4.3467
61.5000 5.8078
61.5100 4.0191
61.5200 2.8664
61.5300 4.1405
61.5400 7.7359
61.5500 7.5592
61.5600 3.3975
61.5700 5.3385
61.5800 7.2281
61.5900 8.2375
61.6000 4.2930
61.6100 0.5603
61.6200 5.1686
61.6300 9.1136
61.6400 9.6562
61.6500 7.5263
61.6600 4.2871
61.6700 8.4318
61.6800 10.6314
61.6900 8.1645
61.7000 6.4573
61.7100 9.4806
61.7200 5.7309
61.7300 9.2435
61.7400 7.5255
61.7500 7.2775
61.7600 5.3807
61.7700 11.2046
61.7800 7.1451
61.7900 7.1209
61.8000 1.8551
61.8100 13.2778
61.8200 3.0927
61.8300 10.7196
61.8400 7.4521
61.8500 9.9802
61.8600 6.7090
61.8700 8.3989
61.8800 8.4457
61.8900 6.7096
61.9000 6.9817
61.9100 6.2257
61.9200 3.2553
61.9300 4.2500
61.9400 4.9272
61.9500 3.8519
61.9600 7.1065
61.9700 2.1753
61.9800 4.0277
61.9900 7.2916
62.0000 5.3050
62.0100 4.5359
62.0200 9.0810
62.0300 10.5911
62.0400 6.6104
62.0500 8.8513
62.0600 4.5025
62.0700 9.2064
62.0800 4.5819
62.0900 4.1238
62.1000 5.3963
62.1100 7.9321
62.1200 7.7008
62.1300 4.9692
62.1400 5.2749
62.1500 4.4601
62.1600 5.3878
62.1700 6.0039
62.1800 8.2949
62.1900 9.1148
62.2000 9.7701
62.2100 8.9107
62.2200 7.0099
62.2300 5.5123
62.2400 6.3612
62.2500 12.2258
62.2600 9.9799
62.2700 3.0180
62.2800 10.2529
62.2900 4.6245
62.3000 14.3238
62.3100 5.7883
62.3200 17.1981
62.3300 14.2392
62.3400 8.5710
62.3500 5.4791
62.3600 8.2145
62.3700 9.5096
62.3800 3.4364
62.3900 10.0360
62.4000 5.5297
62.4100 3.4555
62.4200 6.3361
62.4300 9.5516
62.4400 5.5342
62.4500 8.3152
62.4600 2.9234
62.4700 9.9081
62.4800 6.2725
62.4900 9.6251
62.5000 4.1213
62.5100 11.2111
62.5200 4.9797
62.5300 8.8425
62.5400 3.2778
62.5500 12.2601
62.5600 6.3422
62.5700 11.4852
62.5800 5.1649
62.5900 9.4538
62.6000 6.6505
62.6100 5.1320
62.6200 7.0773
62.6300 5.3576
62.6400 5.6744
62.6500 5.2260
62.6600 4.4865
62.6700 6.3214
62.6800 6.3889
62.6900 7.3518
62.7000 4.6075
62.7100 4.5261
62.7200 6.1709
62.7300 6.2608
62.7400 5.2766
62.7500 5.0936
62.7600 3.2956
62.7700 6.0320
62.7800 5.6748
62.7900 4.9735
62.8000 4.7709
62.8100 5.2200
62.8200 5.4618
62.8300 3.0365
62.8400 8.8174
62.8500 5.2122
62.8600 4.0205
62.8700 4.0788
62.8800 8.6670
62.8900 7.6028
62.9000 1.7610
62.9100 2.9153
62.9200 2.3254
62.9300 4.0701
62.9400 5.2113
62.9500 2.9794
62.9600 4.9218
62.9700 6.3149
62.9800 4.5078
62.9900 3.6256
63.0000 3.1246
63.0100 6.6746
63.0200 3.8710
63.0300 4.6253
63.0400 6.1819
63.0500 2.0294
63.0600 3.2513
63.0700 7.8930
63.0800 3.9637
63.0900 5.7383
63.1000 5.0971
63.1100 3.7706
63.1200 6.1333
63.1300 4.1581
63.1400 10.8989
63.1500 6.5350
63.1600 5.2263
63.1700 5.1653
63.1800 4.5135
63.1900 5.5470
63.2000 5.7559
63.2100 6.1573
63.2200 6.1344
63.2300 6.8420
63.2400 7.4326
63.2500 7.5826
63.2600 4.7732
63.2700 12.2314
63.2800 5.7640
63.2900 8.0192
63.3000 9.7237
63.3100 5.3186
63.3200 7.9221
63.3300 4.4162
63.3400 6.7755
63.3500 7.3673
63.3600 5.1604
63.3700 7.4687
63.3800 7.9074
63.3900 7.8343
63.4000 5.4593
63.4100 6.2388
63.4200 3.7045
63.4300 6.8263
63.4400 3.4689
63.4500 3.0108
63.4600 4.0638
63.4700 3.7507
63.4800 8.3275
63.4900 9.9790
63.5000 5.5717
63.5100 5.6100
63.5200 6.2947
63.5300 4.0454
63.5400 5.1508
63.5500 3.9126
63.5600 2.3965
63.5700 1.9858
63.5800 5.0938
63.5900 2.6458
63.6000 8.5151
63.6100 8.1847
63.6200 4.9674
63.6300 8.3911
63.6400 9.3576
63.6500 7.0000
63.6600 2.9947
63.6700 7.8129
63.6800 2.1658
63.6900 4.0777
63.7000 6.9109
63.7100 9.2305
63.7200 7.4483
63.7300 6.4592
63.7400 5.8239
63.7500 7.9236
63.7600 10.8979
63.7700 6.8330
63.7800 6.2339
63.7900 6.2120
63.8000 5.6306
63.8100 2.7702
63.8200 7.4240
63.8300 6.2266
63.8400 6.5879
63.8500 5.8969
63.8600 4.7406
63.8700 8.9948
63.8800 5.5125
63.8900 7.1179
63.9000 3.4832
63.9100 8.6362
63.9200 7.1559
63.9300 5.6531
63.9400 9.0671
63.9500 4.7092
63.9600 6.9612
63.9700 3.3073
63.9800 6.2255
63.9900 3.2483
64.0000 7.2071
64.0100 4.9072
64.0200 0.0000
64.0300 6.0150
64.0400 5.9713
64.0500 4.2775
64.0600 5.1629
64.0700 3.1089
64.0800 5.8137
64.0900 10.1587
64.1000 8.2813
64.1100 7.1489
64.1200 5.8816
64.1300 5.2894
64.1400 8.9361
64.1500 9.3793
64.1600 1.9101
64.1700 6.2428
64.1800 7.0754
64.1900 7.4254
64.2000 4.1695
64.2100 6.1422
64.2200 3.8396
64.2300 8.7092
64.2400 12.6027
64.2500 9.9189
64.2600 6.2980
64.2700 10.0785
64.2800 10.2803
64.2900 6.0185
64.3000 9.9146
64.3100 10.4368
64.3200 8.4491
64.3300 4.8525
64.3400 7.5870
64.3500 3.4538
64.3600 9.3361
64.3700 6.9713
64.3800 6.0746
64.3900 8.3966
64.4000 8.7105
64.4100 3.7376
64.4200 7.3669
64.4300 11.5801
64.4400 9.6203
64.4500 6.4104
64.4600 9.1049
64.4700 7.6053
64.4800 11.1795
64.4900 10.4884
64.5000 8.9571
64.5100 14.0053
64.5200 7.9390
64.5300 10.3171
64.5400 8.0487
64.5500 11.8874
64.5600 14.2746
64.5700 13.3866
64.5800 10.9679
64.5900 15.1098
64.6000 17.4085
64.6100 11.8903
64.6200 14.7480
64.6300 14.7037
64.6400 9.6169
64.6500 12.5436
64.6600 13.2690
64.6700 12.7132
64.6800 16.6438
64.6900 16.3135
64.7000 17.8362
64.7100 18.3778
64.7200 18.0166
64.7300 16.5514
64.7400 25.7311
64.7500 19.3749
64.7600 22.7170
64.7700 18.4339
64.7800 18.3592
64.7900 10.4451
64.8000 13.1143
64.8100 10.0323
64.8200 14.4002
64.8300 13.9551
64.8400 18.6005
64.8500 14.3450
64.8600 18.8055
64.8700 24.7765
64.8800 15.5029
64.8900 24.7456
64.9000 8.7874
64.9100 17.7566
64.9200 16.8283
64.9300 16.3172
64.9400 10.2814
64.9500 10.8246
64.9600 16.5813
64.9700 19.2410
64.9800 14.9043
64.9900 9.8859
65.0000 6.2182
65.0100 11.6101
65.0200 11.0766
65.0300 12.6044
65.0400 11.0443
65.0500 21.2863
65.0600 15.0296
65.0700 19.0782
65.0800 11.9439
65.0900 13.5908
65.1000 14.0205
65.1100 9.7062
65.1200 8.2228
65.1300 15.8645
65.1400 8.3339
65.1500 9.6715
65.1600 7.1229
65.1700 10.6805
65.1800 10.4224
65.1900 11.1379
65.2000 8.1444
65.2100 6.0838
65.2200 8.9724
65.2300 8.8394
65.2400 4.0218
65.2500 6.9458
65.2600 8.2890
65.2700 7.4414
65.2800 10.9710
65.2900 2.3330
65.3000 6.5272
65.3100 11.1215
65.3200 9.3410
65.3300 6.0091
65.3400 5.8851
65.3500 6.2754
65.3600 6.1999
65.3700 12.3022
65.3800 5.1032
65.3900 6.4445
65.4000 6.7310
65.4100 4.4716
65.4200 5.0847
65.4300 2.7094
65.4400 11.0772
65.4500 7.5963
65.4600 7.0378
65.4700 5.9456
65.4800 7.4745
65.4900 8.0933
65.5000 4.2636
65.5100 3.6885
65.5200 4.9180
65.5300 5.2088
65.5400 5.6634
65.5500 6.0990
65.5600 6.8988
65.5700 7.9709
65.5800 10.4692
65.5900 4.2740
65.6000 14.0941
65.6100 8.8107
65.6200 4.6515
65.6300 8.9076
65.6400 11.9644
65.6500 8.5521
65.6600 4.1730
65.6700 7.5619
65.6800 12.3105
65.6900 4.4728
65.7000 6.0805
65.7100 3.0876
65.7200 10.5765
65.7300 8.1231
65.7400 6.2316
65.7500 10.1316
65.7600 9.9455
65.7700 9.5613
65.7800 9.8125
65.7900 2.2479
65.8000 10.6419
65.8100 8.5644
65.8200 8.3179
65.8300 8.2301
65.8400 4.6210
65.8500 4.2828
65.8600 4.7211
65.8700 3.8456
65.8800 4.2416
65.8900 5.1526
65.9000 4.2666
65.9100 6.9679
65.9200 6.9341
65.9300 9.7867
65.9400 8.6623
65.9500 6.9478
65.9600 7.4140
65.9700 1.8358
65.9800 9.1772
65.9900 9.5043
66.0000 8.0697
66.0100 3.5491
66.0200 9.2740
66.0300 9.8294
66.0400 6.8707
66.0500 7.3540
66.0600 3.0471
66.0700 0.9065
66.0800 4.9496
66.0900 4.1105
66.1000 2.0943
66.1100 6.0006
66.1200 5.1370
66.1300 2.1317
66.1400 6.7675
66.1500 11.6747
66.1600 6.5453
66.1700 6.1267
66.1800 4.2345
66.1900 6.3954
66.2000 5.9916
66.2100 4.1550
66.2200 3.1583
66.2300 6.3916
66.2400 2.9884
66.2500 7.2769
66.2600 3.7822
66.2700 3.6374
66.2800 6.0668
66.2900 3.4120
66.3000 5.5748
66.3100 6.2964
66.3200 4.1072
66.3300 10.2730
66.3400 4.2307
66.3500 5.8118
66.3600 7.2448
66.3700 6.5596
66.3800 4.2973
66.3900 5.9932
66.4000 6.1115
66.4100 10.9243
66.4200 7.8093
66.4300 8.4508
66.4400 7.6831
66.4500 5.4267
66.4600 7.6189
66.4700 10.9202
66.4800 8.6260
66.4900 5.9932
66.5000 7.0579
66.5100 9.7944
66.5200 5.3103
66.5300 8.1227
66.5400 6.5862
66.5500 6.2601
66.5600 3.0173
66.5700 3.8252
66.5800 5.8505
66.5900 6.1377
66.6000 6.7350
66.6100 9.8037
66.6200 9.0079
66.6300 3.2450
66.6400 3.9478
66.6500 6.3611
66.6600 8.1841
66.6700 5.7792
66.6800 5.6146
66.6900 5.6336
66.7000 4.4514
66.7100 0.6289
66.7200 2.5633
66.7300 4.7751
66.7400 6.1981
66.7500 2.6831
66.7600 9.2386
66.7700 5.6037
66.7800 15.7646
66.7900 6.8669
66.8000 9.3881
66.8100 1.7377
66.8200 5.7401
66.8300 8.5601
66.8400 4.0268
66.8500 3.0988
66.8600 8.0963
66.8700 5.7154
66.8800 9.6821
66.8900 6.5897
66.9000 6.9149
66.9100 9.7049
66.9200 8.4668
66.9300 9.3026
66.9400 3.8855
66.9500 4.3444
66.9600 4.0374
66.9700 9.2823
66.9800 5.4561
66.9900 10.7970
67.0000 6.3276
67.0100 5.3028
67.0200 6.6909
67.0300 5.3292
67.0400 5.6926
67.0500 6.0435
67.0600 3.0346
67.0700 5.0731
67.0800 3.6725
67.0900 7.1455
67.1000 7.5114
67.1100 10.2655
67.1200 7.9207
67.1300 8.7384
67.1400 9.1385
67.1500 10.0402
67.1600 8.7887
67.1700 5.4774
67.1800 7.3840
67.1900 6.6721
67.2000 5.4765
67.2100 3.3841
67.2200 7.8328
67.2300 6.7499
67.2400 5.3239
67.2500 2.8637
67.2600 5.1372
67.2700 5.3198
67.2800 9.0262
67.2900 6.1823
67.3000 3.2888
67.3100 4.8881
67.3200 5.3471
67.3300 6.5915
67.3400 4.1804
67.3500 6.5607
67.3600 7.7171
67.3700 9.8949
67.3800 8.5943
67.3900 4.3842
67.4000 8.0165
67.4100 9.6530
67.4200 5.8631
67.4300 12.3665
67.4400 4.8321
67.4500 4.4955
67.4600 3.7518
67.4700 3.4500
67.4800 5.2238
67.4900 3.1912
67.5000 6.8369
67.5100 5.2240
67.5200 10.8338
67.5300 7.8743
67.5400 5.7315
67.5500 9.4464
67.5600 6.8118
67.5700 8.5372
67.5800 7.3339
67.5900 6.4635
67.6000 6.5050
67.6100 4.7274
67.6200 5.3209
67.6300 3.8504
67.6400 4.7670
67.6500 4.8503
67.6600 4.5672
67.6700 3.9679
67.6800 4.0547
67.6900 7.8295
67.7000 2.2514
67.7100 3.5347
67.7200 11.5905
67.7300 3.4558
67.7400 6.8469
67.7500 5.0999
67.7600 6.4807
67.7700 4.5746
67.7800 4.8711
67.7900 10.3697
67.8000 3.4871
67.8100 7.2712
67.8200 3.6225
67.8300 2.7058
67.8400 7.3195
67.8500 2.1207
67.8600 3.6045
67.8700 3.3565
67.8800 7.8947
67.8900 5.7307
67.9000 6.2270
67.9100 10.0292
67.9200 9.5000
67.9300 10.4620
67.9400 6.8344
67.9500 1.7226
67.9600 6.0657
67.9700 3.6164
67.9800 6.9901
67.9900 8.5330
68.0000 8.8465
68.0100 5.6648
68.0200 8.1736
68.0300 6.4446
68.0400 4.4322
68.0500 3.0187
68.0600 7.5376
68.0700 6.9453
68.0800 8.9706
68.0900 7.8516
68.1000 3.4448
68.1100 5.5523
68.1200 6.1508
68.1300 3.3353
68.1400 8.7629
68.1500 7.4805
68.1600 7.6410
68.1700 6.7810
68.1800 4.2474
68.1900 13.3463
68.2000 5.6088
68.2100 3.4188
68.2200 6.6696
68.2300 3.6092
68.2400 10.1282
68.2500 2.6999
68.2600 5.5420
68.2700 2.5250
68.2800 13.4900
68.2900 5.6412
68.3000 9.0009
68.3100 10.0856
68.3200 2.8444
68.3300 7.7114
68.3400 7.3038
68.3500 9.1167
68.3600 4.7976
68.3700 4.7649
68.3800 1.8215
68.3900 6.3924
68.4000 6.9741
68.4100 6.7259
68.4200 7.4341
68.4300 6.2570
68.4400 12.1529
68.4500 2.5114
68.4600 6.6114
68.4700 6.1281
68.4800 4.3121
68.4900 6.4757
68.5000 4.3653
68.5100 5.0626
68.5200 4.6805
68.5300 10.7080
68.5400 14.5426
68.5500 5.3251
68.5600 5.3133
68.5700 4.2811
68.5800 5.7532
68.5900 6.3413
68.6000 5.2780
68.6100 7.9262
68.6200 5.2462
68.6300 10.2427
68.6400 5.4347
68.6500 6.7497
68.6600 7.1765
68.6700 3.5739
68.6800 8.7003
68.6900 2.5059
68.7000 4.7918
68.7100 5.4584
68.7200 5.3715
68.7300 8.0954
68.7400 9.0750
68.7500 4.8646
68.7600 9.5605
68.7700 8.1323
68.7800 21.2083
68.7900 10.1099
68.8000 14.5055
68.8100 10.0075
68.8200 5.2093
68.8300 6.6564
68.8400 5.1599
68.8500 19.0678
68.8600 2.2042
68.8700 4.9324
68.8800 5.2242
68.8900 2.4324
68.9000 9.4080
68.9100 6.0075
68.9200 8.1622
68.9300 3.6007
68.9400 7.5331
68.9500 7.7509
68.9600 4.1257
68.9700 8.2166
68.9800 2.2492
68.9900 4.2579
69.0000 6.2430
69.0100 6.6240
69.0200 6.7565
69.0300 0.5677
69.0400 2.7449
69.0500 4.2806
69.0600 5.8924
69.0700 3.3851
69.0800 8.4057
69.0900 5.0253
69.1000 6.3230
69.1100 7.8331
69.1200 4.4917
69.1300 9.1945
69.1400 5.4447
69.1500 16.5936
69.1600 4.7014
69.1700 11.8336
69.1800 4.0646
69.1900 8.6295
69.2000 7.2642
69.2100 6.6164
69.2200 3.9113
69.2300 7.3838
69.2400 5.7387
69.2500 5.3273
69.2600 5.3950
69.2700 7.1712
69.2800 5.7940
69.2900 9.9815
69.3000 4.4499
69.3100 7.4916
69.3200 8.8597
69.3300 9.2444
69.3400 7.3017
69.3500 4.6721
69.3600 5.3343
69.3700 6.4423
69.3800 5.4202
69.3900 4.1381
69.4000 2.5616
69.4100 4.8545
69.4200 1.7065
69.4300 5.5415
69.4400 5.6019
69.4500 2.8110
69.4600 8.9325
69.4700 5.3301
69.4800 6.2513
69.4900 6.4871
69.5000 4.8489
69.5100 3.1750
69.5200 6.7717
69.5300 6.2947
69.5400 7.3455
69.5500 7.9830
69.5600 5.6526
69.5700 5.1330
69.5800 6.4964
69.5900 8.0473
69.6000 7.5812
69.6100 3.2782
69.6200 7.7174
69.6300 6.7813
69.6400 9.5705
69.6500 8.1645
69.6600 5.9989
69.6700 10.7377
69.6800 8.7663
69.6900 6.4808
69.7000 6.9865
69.7100 4.9607
69.7200 5.1188
69.7300 4.5570
69.7400 4.9374
69.7500 2.0646
69.7600 6.0276
69.7700 4.1375
69.7800 4.8983
69.7900 9.8912
69.8000 7.8036
69.8100 6.6343
69.8200 3.2731
69.8300 2.8076
69.8400 7.0594
69.8500 6.6426
69.8600 5.2892
69.8700 6.6707
69.8800 5.2521
69.8900 8.6851
69.9000 8.6566
69.9100 6.7762
69.9200 6.1358
69.9300 9.1065
69.9400 10.7059
69.9500 12.0599
69.9600 6.9296
69.9700 11.1311
69.9800 5.9016
69.9900 14.8686
70.0000 6.3368
70.0100 14.6768
70.0200 8.1823
70.0300 11.1700
70.0400 3.3711
70.0500 9.1796
70.0600 5.4079
70.0700 10.5354
70.0800 5.5214
70.0900 5.1642
70.1000 5.5197
70.1100 7.7872
70.1200 5.9630
70.1300 7.0909
70.1400 5.4084
70.1500 6.3712
70.1600 6.1968
70.1700 5.9788
70.1800 5.9468
70.1900 6.7271
70.2000 5.3590
70.2100 8.9163
70.2200 13.3648
70.2300 10.0547
70.2400 2.5039
70.2500 12.9866
70.2600 1.4623
70.2700 4.5545
70.2800 7.6963
70.2900 4.7039
70.3000 7.0954
70.3100 1.7813
70.3200 4.9597
70.3300 6.5140
70.3400 1.1591
70.3500 3.0508
70.3600 5.3878
70.3700 7.7713
70.3800 6.2708
70.3900 9.0038
70.4000 7.6453
70.4100 6.4045
70.4200 3.9923
70.4300 7.8656
70.4400 5.0121
70.4500 9.7849
70.4600 4.3168
70.4700 12.2527
70.4800 5.4167
70.4900 6.7531
70.5000 5.8772
70.5100 5.7969
70.5200 8.7457
70.5300 7.7305
70.5400 18.6379
70.5500 5.7378
70.5600 11.2198
70.5700 5.2720
70.5800 12.2145
70.5900 6.4660
70.6000 3.9564
70.6100 4.4508
70.6200 7.5905
70.6300 3.1091
70.6400 5.0216
70.6500 6.2655
70.6600 11.0220
70.6700 8.7869
70.6800 6.6442
70.6900 5.7514
70.7000 8.5727
70.7100 5.5292
70.7200 9.9584
70.7300 6.5053
70.7400 6.0438
70.7500 2.9017
70.7600 4.9842
70.7700 8.0085
70.7800 6.0531
70.7900 4.0234
70.8000 5.0190
70.8100 3.7973
70.8200 6.6655
70.8300 8.4048
70.8400 7.3802
70.8500 4.3455
70.8600 4.9534
70.8700 3.7014
70.8800 10.0885
70.8900 6.7946
70.9000 3.4270
70.9100 2.8584
70.9200 4.4096
70.9300 3.1449
70.9400 3.2498
70.9500 6.6328
70.9600 7.4162
70.9700 5.5798
70.9800 9.6998
70.9900 7.5986
71.0000 8.6884
71.0100 6.8654
71.0200 5.3841
71.0300 3.6669
71.0400 2.7088
71.0500 5.8938
71.0600 8.3912
71.0700 6.9354
71.0800 8.2371
71.0900 4.4082
71.1000 8.6182
71.1100 9.0123
71.1200 6.8183
71.1300 3.1822
71.1400 7.5207
71.1500 5.7311
71.1600 3.7993
71.1700 3.8358
71.1800 4.0594
71.1900 11.8093
71.2000 9.2195
71.2100 2.3761
71.2200 9.6443
71.2300 6.7422
71.2400 5.8413
71.2500 5.1622
71.2600 6.9670
71.2700 5.0034
71.2800 3.5202
71.2900 4.2387
71.3000 2.2581
71.3100 5.4868
71.3200 5.2379
71.3300 8.6444
71.3400 11.4600
71.3500 6.0853
71.3600 5.1256
71.3700 6.4041
71.3800 10.0553
71.3900 11.3377
71.4000 5.8213
71.4100 3.9584
71.4200 0.3956
71.4300 5.4933
71.4400 4.4772
71.4500 4.5868
71.4600 9.1775
71.4700 4.2747
71.4800 8.2279
71.4900 5.0887
71.5000 5.8047
71.5100 5.3435
71.5200 3.3328
71.5300 3.9960
71.5400 6.4632
71.5500 5.6303
71.5600 7.6678
71.5700 7.3208
71.5800 4.4321
71.5900 4.3769
71.6000 2.9555
71.6100 5.9063
71.6200 5.2435
71.6300 4.3040
71.6400 7.0939
71.6500 5.4414
71.6600 5.4024
71.6700 2.0986
71.6800 5.7025
71.6900 4.5029
71.7000 8.5826
71.7100 3.5198
71.7200 3.0395
71.7300 5.2162
71.7400 5.3436
71.7500 4.5004
71.7600 3.2697
71.7700 3.2943
71.7800 6.0842
71.7900 3.6703
71.8000 7.8586
71.8100 6.1079
71.8200 6.2879
71.8300 5.5337
71.8400 3.2126
71.8500 5.4903
71.8600 8.2202
71.8700 7.6464
71.8800 5.8650
71.8900 6.7907
71.9000 4.0620
71.9100 7.9707
71.9200 6.4962
71.9300 8.1794
71.9400 1.4516
71.9500 7.7800
71.9600 8.9135
71.9700 9.0817
71.9800 12.2345
71.9900 8.6615
72.0000 5.9380
72.0100 11.3175
72.0200 10.4716
72.0300 10.8071
72.0400 8.3243
72.0500 3.4785
72.0600 11.1085
72.0700 6.6217
72.0800 10.6911
72.0900 6.8110
72.1000 4.5648
72.1100 3.1963
72.1200 10.4402
72.1300 7.5323
72.1400 7.3284
72.1500 5.3391
72.1600 2.4287
72.1700 5.2996
72.1800 6.5502
72.1900 6.5172
72.2000 2.6682
72.2100 4.6538
72.2200 4.4796
72.2300 4.4680
72.2400 10.9173
72.2500 8.0063
72.2600 11.9420
72.2700 10.7930
72.2800 2.9175
72.2900 7.3024
72.3000 8.1066
72.3100 7.9878
72.3200 5.1826
72.3300 10.2611
72.3400 10.0203
72.3500 5.7237
72.3600 6.1762
72.3700 14.3226
72.3800 3.8386
72.3900 6.3783
72.4000 8.9705
72.4100 6.4302
72.4200 7.7636
72.4300 7.0964
72.4400 13.4508
72.4500 5.9121
72.4600 11.4024
72.4700 7.0948
72.4800 3.6248
72.4900 3.4325
72.5000 3.6047
72.5100 3.3220
72.5200 4.1220
72.5300 1.0359
72.5400 2.3899
72.5500 5.2370
72.5600 3.4710
72.5700 8.8315
72.5800 5.2435
72.5900 0.8910
72.6000 4.9511
72.6100 0.7073
72.6200 3.3561
72.6300 1.4714
72.6400 5.6345
72.6500 6.2988
72.6600 5.3780
72.6700 3.8961
72.6800 4.1225
72.6900 6.1616
72.7000 5.8574
72.7100 3.9289
72.7200 2.2503
72.7300 7.5896
72.7400 6.0297
72.7500 6.4927
72.7600 5.7400
72.7700 9.8345
72.7800 4.5679
72.7900 6.0714
72.8000 4.1515
72.8100 5.9204
72.8200 7.4273
72.8300 4.3048
72.8400 5.3410
72.8500 5.2628
72.8600 3.5218
72.8700 5.8319
72.8800 3.2776
72.8900 7.2323
72.9000 3.9742
72.9100 1.4691
72.9200 7.5650
72.9300 4.8471
72.9400 6.4281
72.9500 6.7840
72.9600 5.8277
72.9700 9.4078
72.9800 6.6561
72.9900 6.7060
73.0000 8.2973
73.0100 5.2947
73.0200 6.6352
73.0300 4.5974
73.0400 8.0786
73.0500 4.0845
73.0600 6.1992
73.0700 5.1984
73.0800 3.3321
73.0900 5.2570
73.1000 4.6410
73.1100 8.2536
73.1200 3.7051
73.1300 14.0087
73.1400 9.0577
73.1500 8.6257
73.1600 4.6777
73.1700 5.2843
73.1800 6.9654
73.1900 6.4012
73.2000 6.1550
73.2100 7.1899
73.2200 5.7196
73.2300 9.4106
73.2400 6.1824
73.2500 6.2420
73.2600 5.4078
73.2700 5.3115
73.2800 3.6580
73.2900 2.6421
73.3000 3.8524
73.3100 5.1562
73.3200 6.1942
73.3300 7.1611
73.3400 8.1687
73.3500 5.4629
73.3600 5.4983
73.3700 4.5964
73.3800 3.9373
73.3900 9.4350
73.4000 6.6744
73.4100 11.1470
73.4200 5.3716
73.4300 9.3554
73.4400 4.9299
73.4500 4.8595
73.4600 3.2808
73.4700 6.7824
73.4800 7.7031
73.4900 6.1651
73.5000 9.7159
73.5100 5.8301
73.5200 11.2020
73.5300 6.2209
73.5400 6.3812
73.5500 4.1186
73.5600 8.5502
73.5700 6.3893
73.5800 4.1774
73.5900 7.4379
73.6000 6.9110
73.6100 4.7646
73.6200 9.3691
73.6300 11.3656
73.6400 8.0774
73.6500 2.2110
73.6600 4.2432
73.6700 8.6456
73.6800 6.2431
73.6900 5.4780
73.7000 6.4038
73.7100 4.3323
73.7200 5.2912
73.7300 6.2468
73.7400 8.9467
73.7500 7.3044
73.7600 6.2563
73.7700 6.2257
73.7800 13.0853
73.7900 6.5091
73.8000 3.6938
73.8100 5.0853
73.8200 3.7445
73.8300 9.6027
73.8400 9.7893
73.8500 9.2716
73.8600 7.1978
73.8700 7.5506
73.8800 11.9697
73.8900 12.0553
73.9000 8.8723
73.9100 5.4362
73.9200 10.1810
73.9300 5.0514
73.9400 11.1833
73.9500 3.1678
73.9600 12.2701
73.9700 6.2087
73.9800 4.1213
73.9900 4.8101
74.0000 4.1382
74.0100 6.9946
74.0200 6.7271
74.0300 5.3156
74.0400 9.6730
74.0500 5.0052
74.0600 6.2429
74.0700 5.0901
74.0800 5.3397
74.0900 5.8530
74.1000 9.0169
74.1100 9.2411
74.1200 6.8113
74.1300 12.1970
74.1400 9.4193
74.1500 3.4680
74.1600 7.2873
74.1700 4.4341
74.1800 5.7482
74.1900 4.6274
74.2000 5.8598
74.2100 5.5795
74.2200 7.8097
74.2300 6.7449
74.2400 3.6802
74.2500 2.1882
74.2600 7.2163
74.2700 10.1809
74.2800 5.1893
74.2900 6.1862
74.3000 3.9356
74.3100 3.8401
74.3200 4.2421
74.3300 3.3555
74.3400 2.1620
74.3500 3.2036
74.3600 6.4400
74.3700 7.2527
74.3800 10.2588
74.3900 5.8599
74.4000 5.8181
74.4100 3.2535
74.4200 4.4274
74.4300 6.7149
74.4400 6.3024
74.4500 2.6300
74.4600 7.1651
74.4700 8.3400
74.4800 10.8603
74.4900 4.3324
74.5000 6.7435
74.5100 3.6291
74.5200 2.8257
74.5300 3.1227
74.5400 9.3797
74.5500 6.7716
74.5600 5.3827
74.5700 3.5622
74.5800 7.1314
74.5900 4.3694
74.6000 6.1234
74.6100 4.5497
74.6200 6.7951
74.6300 8.1741
74.6400 8.2423
74.6500 6.3816
74.6600 5.2115
74.6700 3.0893
74.6800 5.0468
74.6900 5.0339
74.7000 4.9379
74.7100 3.0891
74.7200 4.3100
74.7300 4.3838
74.7400 3.8392
74.7500 9.4730
74.7600 4.3983
74.7700 8.5842
74.7800 8.0592
74.7900 9.4461
74.8000 7.3449
74.8100 8.0657
74.8200 7.0490
74.8300 6.3453
74.8400 5.4141
74.8500 6.2825
74.8600 5.5963
74.8700 8.5151
74.8800 6.5759
74.8900 6.8504
74.9000 3.2738
74.9100 12.0060
74.9200 4.7408
74.9300 14.1264
74.9400 6.0173
74.9500 7.2219
74.9600 8.4995
74.9700 4.6036
74.9800 4.9429
74.9900 4.0983
75.0000 4.0179
75.0100 9.1969
75.0200 7.7231
75.0300 5.5873
75.0400 5.5727
75.0500 7.2491
75.0600 8.8001
75.0700 10.4271
75.0800 6.3611
75.0900 5.0114
75.1000 7.1170
75.1100 5.4004
75.1200 6.3063
75.1300 8.0022
75.1400 5.0737
75.1500 6.9488
75.1600 4.9971
75.1700 2.4588
75.1800 4.2940
75.1900 2.2520
75.2000 5.0217
75.2100 8.2303
75.2200 6.3985
75.2300 6.0517
75.2400 2.8693
75.2500 6.2520
75.2600 4.6658
75.2700 4.3366
75.2800 5.7135
75.2900 7.1250
75.3000 8.8904
75.3100 5.0591
75.3200 7.7562
75.3300 7.4643
75.3400 8.8036
75.3500 3.6865
75.3600 9.3761
75.3700 4.2441
75.3800 7.1462
75.3900 6.6130
75.4000 8.5142
75.4100 4.4164
75.4200 3.9874
75.4300 4.1539
75.4400 7.1176
75.4500 4.0011
75.4600 4.6328
75.4700 7.5250
75.4800 4.4106
75.4900 5.7288
75.5000 5.4805
75.5100 5.5146
75.5200 3.6784
75.5300 6.2718
75.5400 6.1177
75.5500 3.7338
75.5600 11.8716
75.5700 5.5860
75.5800 6.8697
75.5900 2.9578
75.6000 6.2679
75.6100 8.0477
75.6200 1.3873
75.6300 7.7968
75.6400 4.1489
75.6500 3.2804
75.6600 6.7983
75.6700 11.2465
75.6800 5.1890
75.6900 4.6013
75.7000 5.2254
75.7100 4.9978
75.7200 4.2874
75.7300 8.2463
75.7400 8.7074
75.7500 3.8381
75.7600 5.1269
75.7700 7.6003
75.7800 4.2707
75.7900 7.3605
75.8000 8.3580
75.8100 4.3339
75.8200 5.2378
75.8300 4.1695
75.8400 3.2824
75.8500 5.7990
75.8600 7.3720
75.8700 10.3035
75.8800 7.2163
75.8900 3.1164
75.9000 8.2263
75.9100 7.7484
75.9200 6.2994
75.9300 3.8624
75.9400 4.7978
75.9500 4.0973
75.9600 10.8647
75.9700 8.0605
75.9800 4.2139
75.9900 3.9882
76.0000 2.5728
76.0100 10.1152
76.0200 3.1131
76.0300 9.6291
76.0400 7.2951
76.0500 5.6642
76.0600 5.1030
76.0700 11.1293
76.0800 4.1276
76.0900 12.2730
76.1000 8.5917
76.1100 9.7020
76.1200 4.6232
76.1300 15.4661
76.1400 3.9974
76.1500 8.6554
76.1600 3.0846
76.1700 6.3181
76.1800 2.2884
76.1900 7.6050
76.2000 6.6151
76.2100 16.0307
76.2200 7.7281
76.2300 8.3277
76.2400 6.2302
76.2500 5.2003
76.2600 5.0894
76.2700 7.0628
76.2800 5.6530
76.2900 4.4464
76.3000 4.6913
76.3100 6.9424
76.3200 3.8119
76.3300 6.7893
76.3400 11.2261
76.3500 2.2126
76.3600 7.5861
76.3700 4.0277
76.3800 11.0644
76.3900 10.3464
76.4000 6.0498
76.4100 5.0341
76.4200 7.3358
76.4300 8.3863
76.4400 3.7290
76.4500 5.6493
76.4600 2.4015
76.4700 3.9495
76.4800 11.2087
76.4900 7.7140
76.5000 2.2837
76.5100 6.9329
76.5200 14.0090
76.5300 10.7942
76.5400 7.5770
76.5500 5.7922
76.5600 7.4345
76.5700 4.7569
76.5800 9.9843
76.5900 9.3036
76.6000 7.2376
76.6100 9.0660
76.6200 5.0790
76.6300 9.6033
76.6400 6.7295
76.6500 8.5858
76.6600 5.2678
76.6700 9.1433
76.6800 10.8246
76.6900 7.0399
76.7000 13.4026
76.7100 8.3371
76.7200 12.8468
76.7300 13.7509
76.7400 15.4293
76.7500 12.6588
76.7600 17.6541
76.7700 13.4739
76.7800 12.9127
76.7900 4.3306
76.8000 4.9053
76.8100 8.4446
76.8200 9.3477
76.8300 8.1654
76.8400 9.5985
76.8500 6.9526
76.8600 10.5944
76.8700 13.5503
76.8800 13.3381
76.8900 9.7253
76.9000 10.2972
76.9100 8.6228
76.9200 3.4966
76.9300 5.1539
76.9400 4.0838
76.9500 5.8244
76.9600 7.8489
76.9700 2.2181
76.9800 6.0039
76.9900 8.0889
77.0000 10.3053
77.0100 5.8981
77.0200 15.5088
77.0300 6.3433
77.0400 8.1721
77.0500 6.8284
77.0600 7.8452
77.0700 1.9366
77.0800 3.5385
77.0900 4.0277
77.1000 4.5634
77.1100 5.4662
77.1200 6.0168
77.1300 5.1478
77.1400 8.1374
77.1500 5.6518
77.1600 7.3304
77.1700 3.8165
77.1800 5.1169
77.1900 6.8154
77.2000 6.2852
77.2100 7.3427
77.2200 6.3879
77.2300 7.4019
77.2400 6.1301
77.2500 5.3825
77.2600 6.0704
77.2700 6.9087
77.2800 8.3264
77.2900 11.1268
77.3000 12.4263
77.3100 13.3414
77.3200 9.9487
77.3300 10.6732
77.3400 3.7442
77.3500 11.0401
77.3600 4.2734
77.3700 9.2754
77.3800 9.3852
77.3900 10.2286
77.4000 9.9883
77.4100 6.5629
77.4200 8.9284
77.4300 3.6762
77.4400 5.2195
77.4500 7.5815
77.4600 9.8114
77.4700 3.1936
77.4800 12.4621
77.4900 7.5447
77.5000 7.0717
77.5100 5.2201
77.5200 7.0865
77.5300 5.9273
77.5400 6.9372
77.5500 6.2010
77.5600 6.6206
77.5700 5.9401
77.5800 6.4856
77.5900 7.3662
77.6000 10.1680
77.6100 5.1767
77.6200 4.0046
77.6300 3.7385
77.6400 4.3161
77.6500 6.2142
77.6600 2.3022
77.6700 8.9117
77.6800 11.0213
77.6900 5.9838
77.7000 2.0841
77.7100 7.1329
77.7200 5.2050
77.7300 6.7665
77.7400 8.8021
77.7500 3.5834
77.7600 5.4944
77.7700 7.3192
77.7800 7.1865
77.7900 6.9521
77.8000 12.8432
77.8100 5.4105
77.8200 16.3275
77.8300 9.7586
77.8400 7.3748
77.8500 4.2338
77.8600 12.0219
77.8700 6.3584
77.8800 5.2565
77.8900 6.7753
77.9000 9.2016
77.9100 8.1409
77.9200 2.2353
77.9300 2.9961
77.9400 4.0229
77.9500 8.5659
77.9600 9.0025
77.9700 7.0495
77.9800 7.5715
77.9900 7.0390
78.0000 3.3476
78.0100 7.8937
78.0200 4.1360
78.0300 4.7742
78.0400 6.0601
78.0500 3.1868
78.0600 3.0488
78.0700 2.1687
78.0800 8.0319
78.0900 2.2045
78.1000 5.8921
78.1100 9.0078
78.1200 5.5822
78.1300 6.5537
78.1400 5.0764
78.1500 4.9239
78.1600 3.1471
78.1700 9.8896
78.1800 3.3541
78.1900 11.2833
78.2000 7.9350
78.2100 4.1854
78.2200 4.1513
78.2300 4.5505
78.2400 6.3095
78.2500 4.4681
78.2600 5.2998
78.2700 3.9482
78.2800 5.3465
78.2900 3.1410
78.3000 2.1879
78.3100 4.9218
78.3200 1.6641
78.3300 6.2132
78.3400 9.4357
78.3500 8.4588
78.3600 7.9975
78.3700 5.3981
78.3800 4.7745
78.3900 6.2603
78.4000 1.2119
78.4100 2.6072
78.4200 6.9067
78.4300 7.0003
78.4400 8.0950
78.4500 3.6580
78.4600 8.8585
78.4700 3.8650
78.4800 6.6451
78.4900 5.5529
78.5000 6.3554
78.5100 4.6163
78.5200 6.0629
78.5300 8.0276
78.5400 3.5526
78.5500 4.3296
78.5600 3.5456
78.5700 6.0625
78.5800 7.4879
78.5900 1.7807
78.6000 4.9387
78.6100 3.4435
78.6200 6.2848
78.6300 3.7486
78.6400 8.2354
78.6500 2.5445
78.6600 6.8337
78.6700 1.6180
78.6800 5.0185
78.6900 4.2960
78.7000 4.3317
78.7100 5.4755
78.7200 2.2814
78.7300 4.2244
78.7400 3.6121
78.7500 7.0058
78.7600 7.1928
78.7700 4.2340
78.7800 5.7439
78.7900 8.2757
78.8000 9.6220
78.8100 7.1901
78.8200 6.3106
78.8300 7.1386
78.8400 11.6329
78.8500 4.6285
78.8600 7.6436
78.8700 7.8564
78.8800 6.6422
78.8900 5.9023
78.9000 2.0459
78.9100 3.6814
78.9200 5.9105
78.9300 6.5412
78.9400 6.3068
78.9500 7.5265
78.9600 2.3206
78.9700 3.1596
78.9800 5.3429
78.9900 8.0780
79.0000 7.9505
79.0100 4.7913
79.0200 7.7836
79.0300 2.6057
79.0400 6.3158
79.0500 9.3193
79.0600 4.8055
79.0700 9.8060
79.0800 3.4317
79.0900 7.5471
79.1000 4.4147
79.1100 11.5224
79.1200 7.5283
79.1300 11.5975
79.1400 3.3702
79.1500 6.3570
79.1600 10.2755
79.1700 7.0004
79.1800 6.6136
79.1900 12.8793
79.2000 9.4549
79.2100 14.5794
79.2200 10.0381
79.2300 10.1356
79.2400 3.3974
79.2500 7.0594
79.2600 2.5101
79.2700 8.6675
79.2800 2.9980
79.2900 6.9000
79.3000 7.1007
79.3100 5.7921
79.3200 4.8995
79.3300 4.4850
79.3400 2.5879
79.3500 4.1258
79.3600 3.1574
79.3700 6.7677
79.3800 3.5408
79.3900 3.9265
79.4000 5.2679
79.4100 3.9267
79.4200 4.6598
79.4300 2.7084
79.4400 6.0248
79.4500 5.2177
79.4600 9.1760
79.4700 5.0924
79.4800 5.1584
79.4900 5.1081
79.5000 3.5034
79.5100 4.6979
79.5200 7.7443
79.5300 8.9863
79.5400 10.1838
79.5500 5.9950
79.5600 7.6936
79.5700 7.1294
79.5800 2.9870
79.5900 4.5704
79.6000 7.8389
79.6100 5.1181
79.6200 10.3428
79.6300 6.7284
79.6400 5.5859
79.6500 3.6328
79.6600 6.7593
79.6700 6.2407
79.6800 9.1566
79.6900 7.1568
79.7000 4.2415
79.7100 10.9070
79.7200 6.8348
79.7300 3.2227
79.7400 2.0651
79.7500 7.1858
79.7600 5.4110
79.7700 2.3533
79.7800 2.6277
79.7900 3.8469
79.8000 2.9240
79.8100 5.3587
79.8200 4.3089
79.8300 4.0467
79.8400 6.2995
79.8500 3.8841
79.8600 9.2432
79.8700 4.7098
79.8800 6.6525
79.8900 5.4022
79.9000 10.9774
79.9100 4.5559
79.9200 5.2758
79.9300 16.1839
79.9400 6.5229
79.9500 10.1007
79.9600 3.7902
79.9700 6.3556
79.9800 9.2396
79.9900 15.6903
80.0000 9.2352
80.0100 6.5349
80.0200 6.4832
80.0300 7.0772
80.0400 3.6593
80.0500 8.1082
80.0600 2.7880
80.0700 3.3936
80.0800 4.1417
80.0900 9.0003
80.1000 7.2871
80.1100 2.2866
80.1200 1.9733
80.1300 4.7390
80.1400 6.8360
80.1500 6.7583
80.1600 5.0904
80.1700 5.0589
80.1800 5.1913
80.1900 13.4203
80.2000 6.3804
80.2100 6.1841
80.2200 0.9921
80.2300 8.5472
80.2400 4.2860
80.2500 6.0641
80.2600 4.9910
80.2700 3.3105
80.2800 5.2452
80.2900 5.3660
80.3000 6.1424
80.3100 3.1203
80.3200 5.8444
80.3300 7.1960
80.3400 7.3272
80.3500 5.9556
80.3600 4.6518
80.3700 6.2559
80.3800 7.6682
80.3900 3.7542
80.4000 6.8544
80.4100 8.2103
80.4200 7.2595
80.4300 3.4473
80.4400 2.8603
80.4500 8.6852
80.4600 8.5379
80.4700 10.0740
80.4800 5.9561
80.4900 10.8219
80.5000 4.7387
80.5100 4.0592
80.5200 6.2065
80.5300 6.3252
80.5400 6.8533
80.5500 4.2159
80.5600 9.9612
80.5700 5.8440
80.5800 9.1507
80.5900 5.2445
80.6000 6.9479
80.6100 4.9978
80.6200 4.9478
80.6300 3.5758
80.6400 11.8299
80.6500 7.5694
80.6600 7.3213
80.6700 10.1612
80.6800 4.7364
80.6900 3.1330
80.7000 5.9031
80.7100 9.4892
80.7200 3.9547
80.7300 5.3686
80.7400 5.0901
80.7500 5.0225
80.7600 1.3735
80.7700 5.4684
80.7800 6.0133
80.7900 10.9255
80.8000 8.0509
80.8100 8.2729
80.8200 5.9128
80.8300 9.1978
80.8400 6.9366
80.8500 5.6103
80.8600 5.7820
80.8700 4.7894
80.8800 7.0708
80.8900 3.7583
80.9000 5.1267
80.9100 3.4204
80.9200 5.2019
80.9300 4.0975
80.9400 10.2134
80.9500 6.3035
80.9600 4.3422
80.9700 7.3064
80.9800 4.6358
80.9900 2.6088
81.0000 6.3947
81.0100 3.4331
81.0200 5.4692
81.0300 5.0078
81.0400 6.2986
81.0500 8.0156
81.0600 0.0000
81.0700 4.2845
81.0800 0.7664
81.0900 7.3823
81.1000 6.0468
81.1100 7.0075
81.1200 2.4096
81.1300 2.7777
81.1400 6.5202
81.1500 3.6262
81.1600 1.1154
81.1700 3.1137
81.1800 3.8312
81.1900 6.0761
81.2000 10.3893
81.2100 10.7726
81.2200 6.3081
81.2300 11.1950
81.2400 6.0199
81.2500 9.5113
81.2600 7.0283
81.2700 5.5549
81.2800 4.7418
81.2900 4.8556
81.3000 6.6529
81.3100 8.4004
81.3200 4.1452
81.3300 4.1856
81.3400 6.9181
81.3500 5.4540
81.3600 7.2475
81.3700 5.2756
81.3800 10.1012
81.3900 6.9469
81.4000 4.1955
81.4100 8.7127
81.4200 9.8004
81.4300 8.9738
81.4400 10.1882
81.4500 7.6278
81.4600 14.0115
81.4700 5.6567
81.4800 8.7434
81.4900 4.2399
81.5000 8.0049
81.5100 7.5782
81.5200 11.6469
81.5300 4.7365
81.5400 2.9818
81.5500 6.2577
81.5600 2.7517
81.5700 3.1589
81.5800 4.9778
81.5900 6.2275
81.6000 5.6144
81.6100 8.2663
81.6200 6.2627
81.6300 7.7460
81.6400 3.7927
81.6500 7.3892
81.6600 10.3034
81.6700 6.5040
81.6800 8.0245
81.6900 14.2436
81.7000 4.9725
81.7100 10.5510
81.7200 9.0153
81.7300 10.8140
81.7400 6.8725
81.7500 8.0866
81.7600 9.4997
81.7700 7.5604
81.7800 16.9822
81.7900 21.6026
81.8000 8.0618
81.8100 9.4371
81.8200 15.8417
81.8300 10.1419
81.8400 9.3364
81.8500 16.6788
81.8600 15.1433
81.8700 19.1749
81.8800 15.1269
81.8900 26.8908
81.9000 22.8397
81.9100 13.7904
81.9200 18.7391
81.9300 21.5268
81.9400 27.3528
81.9500 16.8231
81.9600 19.3699
81.9700 22.6627
81.9800 25.7286
81.9900 28.7212
82.0000 31.8243
82.0100 21.2879
82.0200 28.9953
82.0300 23.2472
82.0400 30.5612
82.0500 30.6816
82.0600 27.2450
82.0700 24.6224
82.0800 28.6282
82.0900 27.1019
82.1000 29.5659
82.1100 25.6179
82.1200 17.6678
82.1300 28.4653
82.1400 28.0266
82.1500 32.0131
82.1600 19.5269
82.1700 21.2512
82.1800 20.2255
82.1900 21.0691
82.2000 23.6086
82.2100 26.1888
82.2200 25.3818
82.2300 18.9817
82.2400 19.1826
82.2500 19.5138
82.2600 18.5253
82.2700 15.0566
82.2800 8.5691
82.2900 19.2733
82.3000 16.3652
82.3100 11.2641
82.3200 20.3836
82.3300 17.2403
82.3400 13.5521
82.3500 12.1176
82.3600 21.2444
82.3700 11.8319
82.3800 8.6211
82.3900 7.2208
82.4000 12.8217
82.4100 14.8295
82.4200 6.9343
82.4300 10.3251
82.4400 9.5498
82.4500 10.1033
82.4600 8.7925
82.4700 12.1654
82.4800 12.4950
82.4900 11.6464
82.5000 13.5836
82.5100 9.8116
82.5200 7.4483
82.5300 8.1193
82.5400 9.4893
82.5500 9.1017
82.5600 7.1307
82.5700 6.9608
82.5800 9.6866
82.5900 7.6693
82.6000 5.4033
82.6100 7.0491
82.6200 11.6461
82.6300 11.3687
82.6400 6.3381
82.6500 4.1204
82.6600 15.9503
82.6700 7.5909
82.6800 5.7653
82.6900 4.7167
82.7000 5.8606
82.7100 5.6505
82.7200 11.8547
82.7300 12.7342
82.7400 6.1997
82.7500 10.3759
82.7600 3.0053
82.7700 9.0561
82.7800 2.7899
82.7900 6.7825
82.8000 5.2127
82.8100 13.4473
82.8200 9.2417
82.8300 8.4777
82.8400 11.1274
82.8500 6.5639
82.8600 14.0276
82.8700 4.0298
82.8800 8.6883
82.8900 4.9529
82.9000 7.0860
82.9100 5.3609
82.9200 9.8676
82.9300 5.6403
82.9400 6.5143
82.9500 4.5614
82.9600 6.8937
82.9700 5.0977
82.9800 2.8100
82.9900 3.5512
83.0000 5.8342
83.0100 6.4592
83.0200 4.6928
83.0300 5.2137
83.0400 6.0099
83.0500 7.2001
83.0600 2.5151
83.0700 7.2038
83.0800 7.1423
83.0900 6.0918
83.1000 8.1809
83.1100 9.3349
83.1200 9.7920
83.1300 8.9515
83.1400 7.9542
83.1500 6.8353
83.1600 7.3598
83.1700 3.3092
83.1800 7.1048
83.1900 4.8147
83.2000 4.6907
83.2100 4.7611
83.2200 10.2923
83.2300 1.9532
83.2400 8.2255
83.2500 3.1158
83.2600 4.0161
83.2700 7.3095
83.2800 1.2238
83.2900 5.2689
83.3000 7.3441
83.3100 0.9326
83.3200 5.8668
83.3300 9.5305
83.3400 7.5736
83.3500 6.1933
83.3600 6.3906
83.3700 6.4112
83.3800 6.5044
83.3900 3.5152
83.4000 5.3604
83.4100 6.5936
83.4200 3.1043
83.4300 4.0396
83.4400 6.1616
83.4500 4.1931
83.4600 5.0390
83.4700 6.4335
83.4800 3.2552
83.4900 4.1460
83.5000 7.6943
83.5100 6.9808
83.5200 2.5580
83.5300 3.3684
83.5400 5.7771
83.5500 4.5395
83.5600 4.4816
83.5700 5.2982
83.5800 9.3556
83.5900 6.4423
83.6000 9.3916
83.6100 6.1176
83.6200 3.1187
83.6300 4.5441
83.6400 3.7798
83.6500 1.1078
83.6600 8.1828
83.6700 4.7006
83.6800 4.3182
83.6900 3.2010
83.7000 6.4015
83.7100 1.2344
83.7200 4.0710
83.7300 5.2616
83.7400 1.8347
83.7500 2.6456
83.7600 6.7926
83.7700 4.5515
83.7800 9.4941
83.7900 6.4141
83.8000 4.4655
83.8100 4.1804
83.8200 3.5866
83.8300 2.7794
83.8400 7.5420
83.8500 3.1211
83.8600 7.1995
83.8700 7.1788
83.8800 5.3996
83.8900 5.3916
83.9000 5.8283
83.9100 7.5712
83.9200 5.7912
83.9300 5.7499
83.9400 8.5960
83.9500 3.8673
83.9600 8.9959
83.9700 11.9968
83.9800 9.1163
83.9900 12.6201
84.0000 7.2769
84.0100 2.2150
84.0200 6.2420
84.0300 6.2221
84.0400 5.6139
84.0500 4.0575
84.0600 3.3133
84.0700 9.5980
84.0800 6.2426
84.0900 2.8214
84.1000 8.5241
84.1100 8.0716
84.1200 8.4780
84.1300 9.7773
84.1400 4.1335
84.1500 8.1172
84.1600 3.8773
84.1700 6.3077
84.1800 8.7292
84.1900 1.8853
84.2000 6.2583
84.2100 4.6242
84.2200 5.0718
84.2300 6.1846
84.2400 4.0924
84.2500 9.4466
84.2600 7.1017
84.2700 4.7579
84.2800 7.5657
84.2900 4.1389
84.3000 5.3570
84.3100 4.1190
84.3200 4.0352
84.3300 5.6779
84.3400 4.5027
84.3500 7.6728
84.3600 4.3418
84.3700 3.8001
84.3800 4.0782
84.3900 1.7906
84.4000 3.0450
84.4100 3.4487
84.4200 6.7385
84.4300 7.9035
84.4400 8.3008
84.4500 8.9531
84.4600 6.8271
84.4700 6.9505
84.4800 3.4795
84.4900 3.2332
84.5000 3.7894
84.5100 9.7947
84.5200 5.5186
84.5300 5.6315
84.5400 4.5867
84.5500 7.1697
84.5600 6.7280
84.5700 4.9104
84.5800 6.0281
84.5900 10.8932
84.6000 4.2912
84.6100 3.0327
84.6200 3.1613
84.6300 2.6845
84.6400 1.9547
84.6500 3.7176
84.6600 3.6862
84.6700 6.7254
84.6800 5.6594
84.6900 4.9082
84.7000 6.8463
84.7100 6.2898
84.7200 7.7791
84.7300 6.9959
84.7400 4.4309
84.7500 5.4897
84.7600 6.5294
84.7700 8.9444
84.7800 6.1642
84.7900 5.4138
84.8000 5.8469
84.8100 10.6759
84.8200 6.4953
84.8300 5.6039
84.8400 3.6803
84.8500 8.7760
84.8600 3.8841
84.8700 9.9141
84.8800 5.0501
84.8900 8.8337
84.9000 6.1775
84.9100 6.5086
84.9200 4.1688
84.9300 5.0717
84.9400 5.1081
84.9500 7.8601
84.9600 3.3318
84.9700 8.1320
84.9800 5.2424
84.9900 3.6931
85.0000 6.3434
85.0100 6.6146
85.0200 3.2382
85.0300 4.1398
85.0400 3.1903
85.0500 4.1709
85.0600 4.3010
85.0700 10.1776
85.0800 6.3968
85.0900 5.7121
85.1000 9.0054
85.1100 5.6405
85.1200 3.6836
85.1300 2.6222
85.1400 9.5505
85.1500 5.1293
85.1600 6.3658
85.1700 2.3221
85.1800 1.9667
85.1900 4.5931
85.2000 6.5217
85.2100 3.9810
85.2200 7.3604
85.2300 7.3261
85.2400 4.3330
85.2500 4.9861
85.2600 4.3150
85.2700 5.4054
85.2800 6.9769
85.2900 2.2997
85.3000 5.7970
85.3100 7.7633
85.3200 7.7085
85.3300 4.7938
85.3400 1.6950
85.3500 3.5870
85.3600 1.0814
85.3700 4.2991
85.3800 3.8050
85.3900 6.2653
85.4000 3.2821
85.4100 3.9766
85.4200 5.4271
85.4300 5.9426
85.4400 4.0467
85.4500 5.8871
85.4600 9.1392
85.4700 7.6567
85.4800 4.6808
85.4900 4.4485
85.5000 6.1112
85.5100 4.1802
85.5200 6.4081
85.5300 3.9970
85.5400 4.5492
85.5500 7.6898
85.5600 6.1152
85.5700 3.8911
85.5800 3.6312
85.5900 4.7047
85.6000 9.5644
85.6100 5.4421
85.6200 5.9767
85.6300 3.4213
85.6400 7.2422
85.6500 5.3744
85.6600 3.4219
85.6700 4.7270
85.6800 4.0957
85.6900 5.6025
85.7000 6.4483
85.7100 4.1908
85.7200 1.2208
85.7300 4.2139
85.7400 4.8632
85.7500 4.6655
85.7600 0.4826
85.7700 6.2329
85.7800 1.2475
85.7900 1.9753
85.8000 5.8770
85.8100 6.1853
85.8200 4.1101
85.8300 2.3311
85.8400 4.8360
85.8500 5.7063
85.8600 3.2983
85.8700 4.7631
85.8800 5.6671
85.8900 3.9164
85.9000 6.6414
85.9100 2.7860
85.9200 6.1471
85.9300 5.4159
85.9400 10.0068
85.9500 11.6287
85.9600 8.7396
85.9700 5.2241
85.9800 5.2806
85.9900 4.6389
86.0000 8.0971
86.0100 4.5185
86.0200 10.1856
86.0300 10.5966
86.0400 8.9574
86.0500 4.5305
86.0600 1.6248
86.0700 5.5617
86.0800 4.5982
86.0900 10.0249
86.1000 5.3068
86.1100 5.9305
86.1200 2.4446
86.1300 8.2059
86.1400 6.0715
86.1500 1.9165
86.1600 3.9462
86.1700 6.9160
86.1800 5.6918
86.1900 8.1016
86.2000 4.3292
86.2100 4.8000
86.2200 1.5126
86.2300 6.5939
86.2400 12.1848
86.2500 5.9563
86.2600 3.8436
86.2700 3.9372
86.2800 9.0628
86.2900 9.0747
86.3000 8.0498
86.3100 10.7537
86.3200 4.2276
86.3300 7.5755
86.3400 5.5057
86.3500 5.7153
86.3600 3.1943
86.3700 5.7078
86.3800 5.1146
86.3900 5.0821
86.4000 5.6120
86.4100 4.1932
86.4200 2.2483
86.4300 4.2235
86.4400 6.0565
86.4500 1.3297
86.4600 7.1612
86.4700 5.2930
86.4800 14.0374
86.4900 6.8349
86.5000 21.8533
86.5100 7.5018
86.5200 14.7169
86.5300 7.1090
86.5400 9.3949
86.5500 8.5673
86.5600 7.5819
86.5700 9.5670
86.5800 8.2241
86.5900 9.2863
86.6000 9.9537
86.6100 7.2150
86.6200 7.8959
86.6300 7.1309
86.6400 9.1670
86.6500 2.8469
86.6600 9.1006
86.6700 1.2649
86.6800 4.1645
86.6900 6.6230
86.7000 5.2913
86.7100 3.7713
86.7200 5.8540
86.7300 5.7293
86.7400 7.5306
86.7500 4.0449
86.7600 4.2791
86.7700 5.0952
86.7800 4.2649
86.7900 6.9867
86.8000 3.8777
86.8100 5.0484
86.8200 4.0667
86.8300 2.1227
86.8400 6.9552
86.8500 6.5463
86.8600 8.0780
86.8700 3.5630
86.8800 4.1475
86.8900 6.1753
86.9000 6.1260
86.9100 4.9524
86.9200 8.4880
86.9300 4.4944
86.9400 5.9289
86.9500 9.5142
86.9600 4.1162
86.9700 3.6779
86.9800 4.8062
86.9900 7.4438
87.0000 4.0047
87.0100 3.1956
87.0200 5.2644
87.0300 3.5218
87.0400 6.8292
87.0500 6.4529
87.0600 4.2882
87.0700 9.2011
87.0800 3.7366
87.0900 5.1195
87.1000 6.3390
87.1100 8.5170
87.1200 6.5248
87.1300 8.1518
87.1400 6.5827
87.1500 8.8902
87.1600 5.9547
87.1700 4.2330
87.1800 3.2668
87.1900 4.1551
87.2000 4.4959
87.2100 4.9003
87.2200 6.4272
87.2300 5.2988
87.2400 3.6081
87.2500 1.6948
87.2600 7.1976
87.2700 6.8594
87.2800 9.8578
87.2900 2.3833
87.3000 6.7673
87.3100 5.1354
87.3200 3.9620
87.3300 6.5446
87.3400 3.4635
87.3500 5.9183
87.3600 8.0180
87.3700 7.1044
87.3800 2.5390
87.3900 7.1774
87.4000 8.3145
87.4100 4.8661
87.4200 4.1763
87.4300 7.2933
87.4400 7.5568
87.4500 5.1844
87.4600 7.5351
87.4700 4.1557
87.4800 1.7266
87.4900 5.4945
87.5000 6.5159
87.5100 6.7345
87.5200 10.5736
87.5300 4.7541
87.5400 5.3787
87.5500 9.0224
87.5600 6.0900
87.5700 5.2034
87.5800 7.3050
87.5900 4.1102
87.6000 4.0536
87.6100 3.2108
87.6200 7.7632
87.6300 2.9950
87.6400 5.2439
87.6500 3.7715
87.6600 3.4101
87.6700 8.6811
87.6800 5.5305
87.6900 9.5296
87.7000 6.1232
87.7100 15.0422
87.7200 4.3312
87.7300 9.3650
87.7400 9.1830
87.7500 8.3071
87.7600 7.8476
87.7700 9.4864
87.7800 6.8178
87.7900 5.3730
87.8000 3.6425
87.8100 6.1695
87.8200 8.3052
87.8300 2.2217
87.8400 4.2140
87.8500 2.9627
87.8600 14.5608
87.8700 6.1109
87.8800 3.4342
87.8900 3.3787
87.9000 12.2771
87.9100 6.5735
87.9200 9.1451
87.9300 2.5588
87.9400 9.4336
87.9500 7.1424
87.9600 4.5902
87.9700 6.0201
87.9800 8.5400
87.9900 7.8638
88.0000 5.5328
88.0100 8.1197
88.0200 11.8913
88.0300 7.0734
88.0400 3.3693
88.0500 2.2281
88.0600 0.5975
88.0700 5.3439
88.0800 2.6530
88.0900 6.5170
88.1000 4.1903
88.1100 3.1189
88.1200 7.8200
88.1300 5.6833
88.1400 9.6914
88.1500 3.6052
88.1600 11.1857
88.1700 5.9886
88.1800 8.4211
88.1900 4.6781
88.2000 6.6632
88.2100 2.2677
88.2200 3.2108
88.2300 5.9776
88.2400 7.3200
88.2500 5.4009
88.2600 8.3270
88.2700 11.2165
88.2800 5.3618
88.2900 7.5999
88.3000 6.0595
88.3100 1.0331
88.3200 7.4121
88.3300 3.0189
88.3400 6.6859
88.3500 0.4539
88.3600 2.9955
88.3700 4.3740
88.3800 5.4648
88.3900 5.8960
88.4000 4.6405
88.4100 5.5188
88.4200 8.7833
88.4300 6.4807
88.4400 5.6131
88.4500 2.7107
88.4600 8.0174
88.4700 9.2509
88.4800 5.9632
88.4900 1.9536
88.5000 4.9915
88.5100 7.8270
88.5200 8.4371
88.5300 5.7664
88.5400 6.6387
88.5500 3.7809
88.5600 4.8105
88.5700 9.0361
88.5800 7.3058
88.5900 5.9368
88.6000 3.3170
88.6100 5.4534
88.6200 6.4552
88.6300 3.6691
88.6400 3.5245
88.6500 8.3360
88.6600 3.2700
88.6700 4.2648
88.6800 6.2135
88.6900 7.9226
88.7000 2.8461
88.7100 5.7406
88.7200 7.5699
88.7300 12.0690
88.7400 10.3927
88.7500 6.5330
88.7600 5.6452
88.7700 4.7848
88.7800 6.2435
88.7900 8.8595
88.8000 5.6073
88.8100 10.0298
88.8200 4.8882
88.8300 4.0881
88.8400 7.9820
88.8500 10.0106
88.8600 6.4799
88.8700 8.3166
88.8800 8.3498
88.8900 1.1756
88.9000 8.9896
88.9100 11.4967
88.9200 9.5816
88.9300 7.2247
88.9400 6.0485
88.9500 2.7575
88.9600 4.1930
88.9700 2.5941
88.9800 4.8968
88.9900 4.1815
89.0000 4.2566
89.0100 5.3202
89.0200 4.1827
89.0300 7.0935
89.0400 4.1532
89.0500 2.7406
89.0600 7.8994
89.0700 7.7935
89.0800 6.4933
89.0900 11.5361
89.1000 6.1992
89.1100 15.1028
89.1200 7.4742
89.1300 7.7735
89.1400 7.6247
89.1500 6.9352
89.1600 7.4565
89.1700 10.6832
89.1800 4.1970
89.1900 2.7584
89.2000 4.1538
89.2100 7.4389
89.2200 6.8901
89.2300 5.0592
89.2400 2.7993
89.2500 1.9666
89.2600 6.7697
89.2700 5.7874
89.2800 12.0039
89.2900 3.9981
89.3000 6.8589
89.3100 4.1950
89.3200 4.4836
89.3300 10.3218
89.3400 5.1417
89.3500 8.9638
89.3600 8.7862
89.3700 8.7170
89.3800 2.0855
89.3900 5.5727
89.4000 14.3619
89.4100 8.3858
89.4200 6.1590
89.4300 6.1290
89.4400 9.2606
89.4500 5.6233
89.4600 7.7154
89.4700 6.8165
89.4800 5.5372
89.4900 9.2297
89.5000 7.2222
89.5100 8.0525
89.5200 5.9767
89.5300 4.4130
89.5400 9.9783
89.5500 3.9852
89.5600 8.4087
89.5700 8.9670
89.5800 5.1716
89.5900 9.0296
89.6000 7.0409
89.6100 7.8020
89.6200 3.7466
89.6300 10.1760
89.6400 5.5545
89.6500 11.1049
89.6600 5.0195
89.6700 7.4118
89.6800 4.5941
89.6900 10.8849
89.7000 5.0638
89.7100 8.7624
89.7200 6.0356
89.7300 9.1860
89.7400 4.3380
89.7500 7.4104
89.7600 4.2136
89.7700 8.8635
89.7800 5.7826
89.7900 7.4003
89.8000 3.7760
89.8100 7.4867
89.8200 6.5660
89.8300 5.2254
89.8400 4.0173
89.8500 6.3779
89.8600 6.0267
89.8700 6.7127
89.8800 9.1485
89.8900 10.0344
89.9000 2.1318
89.9100 3.5676
89.9200 3.9896
89.9300 3.7379
89.9400 5.3940
89.9500 4.1368
89.9600 6.5445
89.9700 2.3336
89.9800 3.4376
89.9900 3.7563
90.0000 6.9811
90.0100 5.0422
90.0200 5.8936
90.0300 14.1533
90.0400 6.0115
90.0500 7.3291
90.0600 4.2260
90.0700 7.5599
90.0800 5.3429
90.0900 4.7024
90.1000 5.7993
90.1100 4.3046
90.1200 7.9959
90.1300 5.6541
90.1400 7.0883
90.1500 7.6033
90.1600 8.6635
90.1700 5.9297
90.1800 4.2655
90.1900 5.4648
90.2000 4.9691
90.2100 5.7824
90.2200 1.7111
90.2300 0.8200
90.2400 7.9098
90.2500 2.8695
90.2600 6.0037
90.2700 7.0976
90.2800 5.1841
90.2900 6.5733
90.3000 2.8194
90.3100 5.5154
90.3200 5.1329
90.3300 1.9686
90.3400 5.7742
90.3500 3.0835
90.3600 6.1498
90.3700 6.1926
90.3800 6.0844
90.3900 3.0249
90.4000 6.5485
90.4100 5.7420
90.4200 5.4608
90.4300 5.7005
90.4400 5.7700
90.4500 7.6535
90.4600 1.9317
90.4700 7.5029
90.4800 2.1374
90.4900 1.8042
90.5000 8.1619
90.5100 6.7028
90.5200 6.9108
90.5300 5.0867
90.5400 5.7167
90.5500 4.6341
90.5600 16.4669
90.5700 0.9738
90.5800 10.0569
90.5900 4.3990
90.6000 7.1302
90.6100 5.8178
90.6200 8.8264
90.6300 4.9928
90.6400 9.3428
90.6500 12.2418
90.6600 6.5962
90.6700 6.2248
90.6800 4.1756
90.6900 9.9307
90.7000 4.2603
90.7100 4.5698
90.7200 5.7268
90.7300 9.5229
90.7400 5.9453
90.7500 6.1407
90.7600 2.1424
90.7700 3.2520
90.7800 8.0604
90.7900 14.4835
90.8000 4.4542
90.8100 8.6949
90.8200 8.7813
90.8300 4.2519
90.8400 10.5706
90.8500 5.0299
90.8600 5.4302
90.8700 1.2074
90.8800 2.8000
90.8900 7.2563
90.9000 6.0407
90.9100 8.1739
90.9200 5.3708
90.9300 3.5956
90.9400 6.8458
90.9500 3.7214
90.9600 7.9102
90.9700 5.4371
90.9800 7.3228
90.9900 5.4263
91.0000 9.2166
91.0100 6.5154
91.0200 9.0526
91.0300 2.4085
91.0400 7.3814
91.0500 5.9042
91.0600 5.4267
91.0700 2.7280
91.0800 10.8460
91.0900 4.6637
91.1000 6.7185
91.1100 4.2471
91.1200 5.3244
91.1300 3.2528
91.1400 2.8466
91.1500 5.9417
91.1600 6.5448
91.1700 7.2650
91.1800 3.0357
91.1900 7.5237
91.2000 5.9573
91.2100 3.5950
91.2200 4.1057
91.2300 4.2501
91.2400 6.5994
91.2500 6.0173
91.2600 8.4321
91.2700 4.5633
91.2800 8.0900
91.2900 6.7059
91.3000 4.5438
91.3100 6.5355
91.3200 2.0961
91.3300 6.1215
91.3400 4.4881
91.3500 6.8763
91.3600 7.7080
91.3700 6.3237
91.3800 5.9451
91.3900 9.8018
91.4000 7.6368
91.4100 13.4220
91.4200 7.5329
91.4300 8.1935
91.4400 11.0889
91.4500 5.1438
91.4600 6.5074
91.4700 3.3337
91.4800 7.5845
91.4900 7.7050
91.5000 5.6800
91.5100 14.3008
91.5200 4.3005
91.5300 17.6522
91.5400 7.2090
91.5500 15.7561
91.5600 6.0710
91.5700 11.1531
91.5800 5.7654
91.5900 5.2901
91.6000 10.6648
91.6100 6.2469
91.6200 4.2621
91.6300 3.9399
91.6400 7.0166
91.6500 5.3502
91.6600 7.2426
91.6700 4.3776
91.6800 8.7378
91.6900 6.9985
91.7000 5.9093
91.7100 6.3170
91.7200 10.8135
91.7300 8.7710
91.7400 4.8491
91.7500 16.9196
91.7600 6.6461
91.7700 25.6572
91.7800 8.6805
91.7900 14.8568
91.8000 10.5736
91.8100 11.9263
91.8200 7.2944
91.8300 6.4265
91.8400 7.4108
91.8500 7.6836
91.8600 3.2615
91.8700 3.7657
91.8800 3.7211
91.8900 7.0937
91.9000 10.9345
91.9100 8.6272
91.9200 8.8336
91.9300 4.2364
91.9400 3.7083
91.9500 2.2948
91.9600 2.4711
91.9700 6.8926
91.9800 1.0685
91.9900 2.6260
92.0000 4.4843
92.0100 4.6702
92.0200 4.7035
92.0300 5.5632
92.0400 3.4791
92.0500 7.3464
92.0600 8.2097
92.0700 10.3317
92.0800 10.5884
92.0900 11.3091
92.1000 3.1560
92.1100 5.3740
92.1200 7.5710
92.1300 8.0025
92.1400 8.2995
92.1500 7.3074
92.1600 2.9049
92.1700 8.1293
92.1800 4.3053
92.1900 4.9008
92.2000 3.0879
92.2100 2.0937
92.2200 4.0425
92.2300 2.9881
92.2400 5.0792
92.2500 4.0087
92.2600 3.7288
92.2700 8.2251
92.2800 5.3387
92.2900 6.3611
92.3000 8.7978
92.3100 5.5680
92.3200 5.2680
92.3300 4.2480
92.3400 2.0851
92.3500 5.0814
92.3600 5.3904
92.3700 5.3478
92.3800 2.2357
92.3900 3.9734
92.4000 4.0598
92.4100 2.2519
92.4200 7.6132
92.4300 4.3348
92.4400 4.7978
92.4500 10.8820
92.4600 6.4370
92.4700 4.3714
92.4800 3.1409
92.4900 7.8806
92.5000 5.3256
92.5100 7.8867
92.5200 8.1223
92.5300 10.7960
92.5400 11.2667
92.5500 10.7544
92.5600 12.5205
92.5700 8.3471
92.5800 14.2519
92.5900 6.7532
92.6000 7.3342
92.6100 3.3568
92.6200 6.0857
92.6300 5.6896
92.6400 4.5103
92.6500 6.3175
92.6600 7.3651
92.6700 7.5471
92.6800 8.5565
92.6900 4.7582
92.7000 5.2296
92.7100 11.2079
92.7200 4.5055
92.7300 5.7005
92.7400 6.3407
92.7500 9.0490
92.7600 3.3082
92.7700 5.3189
92.7800 11.1883
92.7900 9.3412
92.8000 6.3783
92.8100 3.4374
92.8200 4.2824
92.8300 5.5649
92.8400 5.4393
92.8500 7.6516
92.8600 7.9932
92.8700 8.0913
92.8800 8.8443
92.8900 5.7588
92.9000 4.1821
92.9100 3.1819
92.9200 5.2755
92.9300 4.4447
92.9400 8.7908
92.9500 4.9860
92.9600 5.1959
92.9700 4.0563
92.9800 4.7961
92.9900 2.7893
93.0000 3.7682
93.0100 6.8111
93.0200 6.2322
93.0300 4.4167
93.0400 8.4528
93.0500 4.8062
93.0600 9.2852
93.0700 5.6122
93.0800 6.1114
93.0900 6.0050
93.1000 8.8081
93.1100 9.9598
93.1200 12.2946
93.1300 6.1845
93.1400 2.9088
93.1500 1.2476
93.1600 6.2010
93.1700 6.4902
93.1800 3.6432
93.1900 10.8359
93.2000 9.3101
93.2100 8.7573
93.2200 5.3194
93.2300 6.0982
93.2400 7.0297
93.2500 5.0290
93.2600 4.7489
93.2700 5.0077
93.2800 5.2320
93.2900 2.6853
93.3000 7.4069
93.3100 8.5348
93.3200 5.2018
93.3300 8.2290
93.3400 6.4626
93.3500 10.2863
93.3600 4.2413
93.3700 2.9702
93.3800 7.8893
93.3900 8.3820
93.4000 4.9330
93.4100 9.2877
93.4200 6.7172
93.4300 1.5396
93.4400 7.6051
93.4500 5.4029
93.4600 9.7077
93.4700 5.5571
93.4800 6.8329
93.4900 5.1907
93.5000 4.3695
93.5100 6.0643
93.5200 8.9146
93.5300 6.7490
93.5400 8.4104
93.5500 8.9165
93.5600 5.3488
93.5700 6.5106
93.5800 4.7688
93.5900 4.7820
93.6000 4.1682
93.6100 3.9526
93.6200 3.6762
93.6300 3.3650
93.6400 9.1339
93.6500 6.3817
93.6600 6.3866
93.6700 6.2111
93.6800 12.9531
93.6900 3.5905
93.7000 6.4204
93.7100 4.2374
93.7200 2.7841
93.7300 6.0900
93.7400 3.5907
93.7500 5.3805
93.7600 1.8307
93.7700 8.2354
93.7800 7.0824
93.7900 7.5013
93.8000 8.0339
93.8100 5.9296
93.8200 5.0086
93.8300 7.8005
93.8400 5.6915
93.8500 7.4294
93.8600 5.2190
93.8700 4.2588
93.8800 6.4390
93.8900 4.6453
93.9000 3.5554
93.9100 6.4063
93.9200 6.9817
93.9300 7.2788
93.9400 10.5899
93.9500 7.3471
93.9600 2.9220
93.9700 8.0191
93.9800 7.3261
93.9900 4.3151
94.0000 6.5050
94.0100 4.6516
94.0200 8.8598
94.0300 5.7475
94.0400 4.2095
94.0500 0.3357
94.0600 3.0247
94.0700 3.8452
94.0800 5.2858
94.0900 6.9805
94.1000 10.1981
94.1100 12.7329
94.1200 7.3942
94.1300 8.4725
94.1400 7.8552
94.1500 8.9012
94.1600 10.0986
94.1700 7.4649
94.1800 7.0785
94.1900 3.2645
94.2000 6.3097
94.2100 4.5135
94.2200 1.2824
94.2300 2.4031
94.2400 6.8786
94.2500 3.3968
94.2600 6.7761
94.2700 8.6417
94.2800 5.3809
94.2900 12.2476
94.3000 2.5468
94.3100 6.7866
94.3200 8.8779
94.3300 7.3127
94.3400 9.8893
94.3500 5.7137
94.3600 4.3159
94.3700 6.6685
94.3800 3.1963
94.3900 7.8093
94.4000 8.1536
94.4100 8.5212
94.4200 5.7699
94.4300 5.5163
94.4400 3.8805
94.4500 5.1302
94.4600 3.1811
94.4700 3.8308
94.4800 4.5786
94.4900 4.1479
94.5000 3.2070
94.5100 4.3446
94.5200 6.7800
94.5300 2.8800
94.5400 5.9228
94.5500 3.9439
94.5600 7.7884
94.5700 5.7362
94.5800 7.1895
94.5900 5.4733
94.6000 6.9318
94.6100 9.3562
94.6200 11.3124
94.6300 6.4148
94.6400 3.6975
94.6500 4.1575
94.6600 10.2429
94.6700 3.0557
94.6800 8.9785
94.6900 7.6878
94.7000 12.2448
94.7100 7.6868
94.7200 9.2902
94.7300 4.0843
94.7400 2.6645
94.7500 3.1069
94.7600 4.1778
94.7700 2.1423
94.7800 5.4139
94.7900 6.6477
94.8000 9.7181
94.8100 3.3165
94.8200 4.1997
94.8300 9.2264
94.8400 6.0972
94.8500 3.3418
94.8600 5.6329
94.8700 4.1158
94.8800 4.7583
94.8900 6.8324
94.9000 5.5871
94.9100 6.1035
94.9200 7.2746
94.9300 5.2435
94.9400 6.9463
94.9500 6.8816
94.9600 3.9423
94.9700 7.1760
94.9800 2.2272
94.9900 3.0685
95.0000 3.4232
95.0100 8.9263
95.0200 6.2849
95.0300 4.2422
95.0400 8.0448
95.0500 6.7208
95.0600 8.2185
95.0700 9.6114
95.0800 7.3710
95.0900 9.6443
95.1000 5.7884
95.1100 5.9466
95.1200 3.8357
95.1300 1.2770
95.1400 5.0761
95.1500 4.5058
95.1600 6.6136
95.1700 8.9415
95.1800 5.3306
95.1900 5.3925
95.2000 8.9501
95.2100 6.9270
95.2200 14.8971
95.2300 5.1854
95.2400 21.3521
95.2500 5.9950
95.2600 15.4426
95.2700 6.1180
95.2800 8.5690
95.2900 7.8937
95.3000 10.1834
95.3100 5.8088
95.3200 6.6684
95.3300 6.4028
95.3400 4.2681
95.3500 7.0377
95.3600 5.3533
95.3700 6.2955
95.3800 11.2496
95.3900 10.3803
95.4000 5.3766
95.4100 1.7999
95.4200 5.0277
95.4300 4.3769
95.4400 3.5182
95.4500 4.1124
95.4600 2.1414
95.4700 6.4309
95.4800 9.2330
95.4900 5.8267
95.5000 10.8240
95.5100 7.6359
95.5200 12.6451
95.5300 4.7520
95.5400 9.7640
95.5500 4.3271
95.5600 6.0998
95.5700 7.3644
95.5800 9.3100
95.5900 6.8652
95.6000 9.3766
95.6100 8.6583
95.6200 12.5005
95.6300 7.6187
95.6400 7.6484
95.6500 4.4952
95.6600 6.2302
95.6700 5.2999
95.6800 9.5178
95.6900 7.2618
95.7000 12.9052
95.7100 5.6201
95.7200 5.4513
95.7300 5.4725
95.7400 5.5918
95.7500 3.5894
95.7600 5.7838
95.7700 6.1573
95.7800 3.0903
95.7900 7.9933
95.8000 10.3867
95.8100 6.9129
95.8200 8.8058
95.8300 1.0839
95.8400 5.0279
95.8500 6.5841
95.8600 5.7683
95.8700 2.1449
95.8800 4.1537
95.8900 8.3386
95.9000 3.6494
95.9100 9.9048
95.9200 6.4149
95.9300 6.0419
95.9400 8.1748
95.9500 6.8584
95.9600 5.2625
95.9700 5.6325
95.9800 6.2407
95.9900 7.0516
96.0000 11.0205
96.0100 6.6546
96.0200 7.4086
96.0300 3.7631
96.0400 2.8598
96.0500 2.4287
96.0600 0.9395
96.0700 7.8265
96.0800 4.0832
96.0900 4.3092
96.1000 3.1059
96.1100 2.0516
96.1200 2.0909
96.1300 5.1557
96.1400 5.4282
96.1500 4.6286
96.1600 6.5160
96.1700 6.6530
96.1800 6.9104
96.1900 4.2848
96.2000 5.2692
96.2100 5.9892
96.2200 6.1691
96.2300 4.7477
96.2400 8.5770
96.2500 4.4238
96.2600 4.9244
96.2700 8.5155
96.2800 4.0079
96.2900 1.6673
96.3000 8.8807
96.3100 6.9374
96.3200 5.1168
96.3300 1.6427
96.3400 6.9730
96.3500 3.6652
96.3600 6.6681
96.3700 5.8420
96.3800 8.4454
96.3900 2.6383
96.4000 6.8871
96.4100 6.4203
96.4200 9.1912
96.4300 5.7941
96.4400 8.4649
96.4500 7.1773
96.4600 5.4438
96.4700 3.8881
96.4800 6.0614
96.4900 9.2836
96.5000 13.1985
96.5100 9.7010
96.5200 15.0098
96.5300 4.9077
96.5400 13.4343
96.5500 5.9557
96.5600 10.3365
96.5700 7.6552
96.5800 11.0851
96.5900 7.2140
96.6000 7.4154
96.6100 5.3968
96.6200 5.2373
96.6300 4.3948
96.6400 7.5122
96.6500 6.1619
96.6600 3.5557
96.6700 7.4755
96.6800 7.4503
96.6900 3.0764
96.7000 5.8616
96.7100 3.5062
96.7200 5.8059
96.7300 3.4014
96.7400 7.0887
96.7500 7.1351
96.7600 4.8475
96.7700 7.5937
96.7800 6.8302
96.7900 8.8754
96.8000 3.9422
96.8100 4.4365
96.8200 3.1626
96.8300 3.0664
96.8400 9.1255
96.8500 2.7411
96.8600 8.4158
96.8700 3.7056
96.8800 5.9428
96.8900 4.7965
96.9000 7.7568
96.9100 5.3775
96.9200 7.4584
96.9300 6.3725
96.9400 10.2502
96.9500 4.2811
96.9600 6.9504
96.9700 2.6643
96.9800 5.7198
96.9900 6.3818
97.0000 10.5566
97.0100 8.5779
97.0200 12.1195
97.0300 11.0322
97.0400 8.7870
97.0500 9.5146
97.0600 6.3767
97.0700 16.6379
97.0800 5.8542
97.0900 10.8090
97.1000 5.9205
97.1100 8.1572
97.1200 5.8629
97.1300 1.4772
97.1400 6.6440
97.1500 6.1167
97.1600 6.7510
97.1700 8.1096
97.1800 6.8729
97.1900 4.3045
97.2000 5.9692
97.2100 2.7529
97.2200 5.1652
97.2300 4.1200
97.2400 5.9265
97.2500 6.2539
97.2600 2.3631
97.2700 9.2663
97.2800 5.6499
97.2900 8.7959
97.3000 11.8136
97.3100 13.9527
97.3200 4.9013
97.3300 9.3928
97.3400 7.0410
97.3500 7.5305
97.3600 7.4566
97.3700 11.2581
97.3800 7.6299
97.3900 6.7627
97.4000 6.2462
97.4100 4.1473
97.4200 10.5824
97.4300 7.1498
97.4400 7.2841
97.4500 4.8393
97.4600 8.9576
97.4700 5.1750
97.4800 3.3614
97.4900 7.4136
97.5000 2.0790
97.5100 3.0556
97.5200 1.5780
97.5300 3.6452
97.5400 5.7199
97.5500 4.7326
97.5600 5.9726
97.5700 3.4463
97.5800 6.2251
97.5900 7.0601
97.6000 9.7406
97.6100 4.6268
97.6200 6.4177
97.6300 2.1030
97.6400 6.2687
97.6500 5.1180
97.6600 3.3523
97.6700 5.9110
97.6800 6.0719
97.6900 2.1979
97.7000 7.4525
97.7100 11.6360
97.7200 9.8069
97.7300 8.9551
97.7400 5.2917
97.7500 6.0780
97.7600 7.5624
97.7700 7.6784
97.7800 3.3768
97.7900 3.1182
97.8000 4.0244
97.8100 4.3471
97.8200 6.8996
97.8300 5.7787
97.8400 3.9725
97.8500 5.5481
97.8600 7.7643
97.8700 3.6451
97.8800 5.3852
97.8900 6.9870
97.9000 5.9739
97.9100 6.1820
97.9200 9.8625
97.9300 6.0699
97.9400 4.5726
97.9500 9.5240
97.9600 7.9723
97.9700 6.1684
97.9800 10.6490
97.9900 12.7059
98.0000 10.7475
98.0100 9.8433
98.0200 7.0900
98.0300 11.2959
98.0400 3.0420
98.0500 4.5425
98.0600 11.4860
98.0700 7.1727
98.0800 9.8408
98.0900 4.2487
98.1000 4.2463
98.1100 5.0318
98.1200 10.9691
98.1300 11.3879
98.1400 7.9904
98.1500 5.1304
98.1600 6.0607
98.1700 3.3423
98.1800 5.8493
98.1900 9.4242
98.2000 7.5086
98.2100 5.2445
98.2200 9.2953
98.2300 8.3076
98.2400 6.6097
98.2500 11.4174
98.2600 8.3035
98.2700 13.6835
98.2800 8.7511
98.2900 8.7163
98.3000 6.9260
98.3100 9.4302
98.3200 10.5132
98.3300 7.1012
98.3400 5.1754
98.3500 8.1681
98.3600 10.7218
98.3700 9.9194
98.3800 13.2383
98.3900 12.4345
98.4000 10.9449
98.4100 6.4484
98.4200 12.2050
98.4300 9.5607
98.4400 9.3596
98.4500 6.4073
98.4600 11.3046
98.4700 11.3409
98.4800 12.1453
98.4900 14.9307
98.5000 10.8583
98.5100 13.2168
98.5200 9.3285
98.5300 14.8577
98.5400 14.7046
98.5500 13.2784
98.5600 13.3882
98.5700 9.7205
98.5800 16.4567
98.5900 8.0192
98.6000 16.4495
98.6100 21.2093
98.6200 14.0734
98.6300 14.4793
98.6400 14.3314
98.6500 23.5005
98.6600 18.2578
98.6700 24.7547
98.6800 14.5639
98.6900 18.3419
98.7000 11.2477
98.7100 8.3693
98.7200 14.9625
98.7300 13.0331
98.7400 15.4157
98.7500 13.9148
98.7600 12.2814
98.7700 14.7948
98.7800 10.2054
98.7900 13.0457
98.8000 8.4926
98.8100 12.0261
98.8200 6.9277
98.8300 14.6247
98.8400 8.8707
98.8500 10.5787
98.8600 7.2412
98.8700 5.6040
98.8800 7.3446
98.8900 9.9564
98.9000 9.4091
98.9100 12.2683
98.9200 15.0132
98.9300 8.4850
98.9400 6.3798
98.9500 11.1637
98.9600 10.2960
98.9700 11.0236
98.9800 13.1910
98.9900 4.9207
99.0000 12.6189
99.0100 12.0035
99.0200 9.9890
99.0300 6.9615
99.0400 10.2647
99.0500 16.2940
99.0600 11.7919
99.0700 9.1891
99.0800 11.3001
99.0900 13.1004
99.1000 13.3994
99.1100 9.4447
99.1200 7.8100
99.1300 3.5774
99.1400 9.2886
99.1500 6.0135
99.1600 4.1520
99.1700 7.4199
99.1800 11.0691
99.1900 8.2347
99.2000 8.2452
99.2100 7.9655
99.2200 8.9532
99.2300 10.5520
99.2400 7.6420
99.2500 7.5851
99.2600 5.2925
99.2700 7.6134
99.2800 9.2032
99.2900 6.6598
99.3000 5.4041
99.3100 2.1320
99.3200 4.0507
99.3300 8.8942
99.3400 6.4457
99.3500 11.3850
99.3600 6.8642
99.3700 5.6929
99.3800 12.0451
99.3900 6.1230
99.4000 8.0667
99.4100 5.9754
99.4200 7.2324
99.4300 4.2259
99.4400 9.3098
99.4500 11.0708
99.4600 8.8712
99.4700 8.5888
99.4800 4.3903
99.4900 9.4405
99.5000 7.9373
99.5100 7.6716
99.5200 5.2771
99.5300 4.2979
99.5400 4.2451
99.5500 5.2216
99.5600 4.9084
99.5700 1.9149
99.5800 1.9039
99.5900 3.1062
99.6000 1.0373
99.6100 3.5825
99.6200 5.5574
99.6300 3.3007
99.6400 6.5395
99.6500 6.6995
99.6600 8.9561
99.6700 7.2899
99.6800 6.4106
99.6900 7.3398
99.7000 7.1170
99.7100 3.5425
99.7200 10.5214
99.7300 4.2468
99.7400 10.9548
99.7500 7.3634
99.7600 3.9121
99.7700 3.4970
99.7800 8.0616
99.7900 7.8372
99.8000 4.5921
99.8100 1.3727
99.8200 9.6122
99.8300 9.9447
99.8400 6.8044
99.8500 7.1268
99.8600 5.1256
99.8700 5.7762
99.8800 6.7188
99.8900 1.8905
99.9000 3.9798
99.9100 4.5015
99.9200 9.8704
99.9300 3.7626
99.9400 7.6741
99.9500 5.4881
99.9600 3.2131
99.9700 4.1032
99.9800 5.2951
99.9900 13.4583
100.0000 5.0444
100.0100 2.6904
100.0200 2.8547
100.0300 7.1944
100.0400 5.9486
100.0500 10.2583
100.0600 12.9248
100.0700 7.6611
100.0800 11.6248
100.0900 3.4212
100.1000 8.2490
100.1100 7.9652
100.1200 7.0540
100.1300 6.5241
100.1400 5.0921
100.1500 6.3524
100.1600 3.9774
100.1700 7.1777
100.1800 4.4797
100.1900 3.4524
100.2000 5.0093
100.2100 4.3326
100.2200 7.2683
100.2300 7.0717
100.2400 2.6177
100.2500 7.1518
100.2600 4.8307
100.2700 11.1477
100.2800 2.5227
100.2900 9.1296
100.3000 4.1831
100.3100 7.2850
100.3200 4.9986
100.3300 5.7004
100.3400 5.7028
100.3500 2.5515
100.3600 10.6102
100.3700 8.7094
100.3800 7.2978
100.3900 4.1857
100.4000 5.6092
100.4100 7.1910
100.4200 6.7572
100.4300 8.3242
100.4400 4.3924
100.4500 4.9585
100.4600 2.5621
100.4700 3.9437
100.4800 3.6401
100.4900 3.1807
100.5000 4.2284
100.5100 4.8795
100.5200 9.8349
100.5300 5.7816
100.5400 12.3441
100.5500 4.1749
100.5600 9.4690
100.5700 8.8891
100.5800 7.9458
100.5900 7.7594
100.6000 6.4661
100.6100 9.3839
100.6200 10.8501
100.6300 7.1423
100.6400 13.1103
100.6500 4.8776
100.6600 5.0447
100.6700 6.7902
100.6800 6.1750
100.6900 4.6482
100.7000 6.0837
100.7100 7.2018
100.7200 3.8249
100.7300 8.1149
100.7400 7.7656
100.7500 3.3618
100.7600 5.9947
100.7700 1.2354
100.7800 3.4079
100.7900 6.1653
100.8000 5.2144
100.8100 5.4525
100.8200 4.4352
100.8300 4.4032
100.8400 7.3963
100.8500 5.5860
100.8600 6.5685
100.8700 9.1804
100.8800 5.4285
100.8900 5.4797
100.9000 6.6293
100.9100 7.1459
100.9200 8.2948
100.9300 9.0390
100.9400 6.1594
100.9500 7.1862
100.9600 8.4156
100.9700 2.2762
100.9800 6.8086
100.9900 7.5484
101.0000 5.5606
101.0100 7.6312
101.0200 2.9015
101.0300 8.2235
101.0400 9.3976
101.0500 9.3762
101.0600 7.6453
101.0700 10.7418
101.0800 5.6611
101.0900 9.1629
101.1000 4.2867
101.1100 6.6033
101.1200 2.5009
101.1300 8.6760
101.1400 5.0359
101.1500 8.5801
101.1600 9.2545
101.1700 11.2645
101.1800 4.3741
101.1900 6.4409
101.2000 5.1927
101.2100 2.4979
101.2200 3.4720
101.2300 5.8455
101.2400 4.2552
101.2500 5.5099
101.2600 4.8642
101.2700 4.5267
101.2800 6.8729
101.2900 4.0999
101.3000 3.8419
101.3100 4.8989
101.3200 9.3602
101.3300 6.1051
101.3400 11.6348
101.3500 5.7345
101.3600 9.9649
101.3700 10.1330
101.3800 4.1230
101.3900 4.1903
101.4000 7.4767
101.4100 3.6304
101.4200 12.5572
101.4300 1.7160
101.4400 3.9391
101.4500 3.2523
101.4600 2.2901
101.4700 6.1930
101.4800 5.1491
101.4900 4.1283
101.5000 6.2894
101.5100 11.4691
101.5200 6.2499
101.5300 4.9009
101.5400 7.1189
101.5500 4.9535
101.5600 5.7892
101.5700 5.8497
101.5800 9.3549
101.5900 10.8273
101.6000 8.5103
101.6100 6.2751
101.6200 10.3229
101.6300 7.3535
101.6400 9.9924
101.6500 8.5581
101.6600 5.8750
101.6700 11.1614
101.6800 5.0560
101.6900 9.9942
101.7000 9.2732
101.7100 6.4664
101.7200 9.9488
101.7300 4.8703
101.7400 3.7066
101.7500 5.3208
101.7600 4.9449
101.7700 8.7988
101.7800 9.9115
101.7900 10.5729
101.8000 7.5872
101.8100 6.5883
101.8200 10.4220
101.8300 9.2514
101.8400 5.2321
101.8500 10.3288
101.8600 6.5275
101.8700 4.0224
101.8800 6.0468
101.8900 5.4040
101.9000 6.5136
101.9100 3.1646
101.9200 8.3871
101.9300 5.2688
101.9400 4.5199
101.9500 6.9182
101.9600 8.5068
101.9700 8.1550
101.9800 12.2690
101.9900 7.0833
102.0000 7.7893
102.0100 6.8650
102.0200 8.1797
102.0300 9.3328
102.0400 6.8017
102.0500 8.5072
102.0600 13.3983
102.0700 6.5370
102.0800 10.6465
102.0900 8.8287
102.1000 4.8285
102.1100 8.6683
102.1200 4.2226
102.1300 4.2678
102.1400 7.5554
102.1500 7.5083
102.1600 13.2533
102.1700 6.7851
102.1800 9.4144
102.1900 8.5002
102.2000 5.9874
102.2100 2.5633
102.2200 6.0398
102.2300 6.4337
102.2400 13.6974
102.2500 7.9366
102.2600 8.7362
102.2700 4.3965
102.2800 6.8716
102.2900 5.3178
102.3000 7.4028
102.3100 5.9280
102.3200 11.7223
102.3300 4.0285
102.3400 6.1612
102.3500 2.0452
102.3600 7.1099
102.3700 7.9876
102.3800 12.1650
102.3900 6.6012
102.4000 6.6608
102.4100 6.6794
102.4200 8.5674
102.4300 4.6838
102.4400 6.4295
102.4500 5.8873
102.4600 2.2842
102.4700 9.1630
102.4800 5.7733
102.4900 4.4684
102.5000 5.1764
102.5100 7.0624
102.5200 4.2470
102.5300 7.5329
102.5400 4.5763
102.5500 7.0870
102.5600 5.4177
102.5700 7.4145
102.5800 5.4839
102.5900 5.5699
102.6000 7.1067
102.6100 9.0035
102.6200 12.2960
102.6300 8.2013
102.6400 6.2229
102.6500 5.9544
102.6600 10.6354
102.6700 6.2761
102.6800 3.7057
102.6900 9.2739
102.7000 8.6291
102.7100 8.4335
102.7200 13.7709
102.7300 7.1509
102.7400 13.4961
102.7500 10.0680
102.7600 5.0589
102.7700 11.6115
102.7800 7.1888
102.7900 6.9622
102.8000 8.6959
102.8100 5.2794
102.8200 2.3197
102.8300 5.0409
102.8400 11.5293
102.8500 7.7906
102.8600 6.0275
102.8700 8.9003
102.8800 2.4198
102.8900 5.1530
102.9000 8.9882
102.9100 6.1168
102.9200 7.9395
102.9300 4.2700
102.9400 4.3322
102.9500 5.6164
102.9600 5.9189
102.9700 12.1437
102.9800 9.3149
102.9900 4.4800
103.0000 7.8953
103.0100 6.7322
103.0200 7.6120
103.0300 5.6015
103.0400 4.8774
103.0500 9.1100
103.0600 5.9827
103.0700 5.9971
103.0800 4.2099
103.0900 4.4502
103.1000 5.9742
103.1100 4.6659
103.1200 5.3472
103.1300 5.5381
103.1400 7.2116
103.1500 2.3081
103.1600 9.6163
103.1700 7.3172
103.1800 5.3806
103.1900 8.3006
103.2000 11.3460
103.2100 10.3066
103.2200 6.9854
103.2300 7.6527
103.2400 7.3297
103.2500 6.4778
103.2600 11.2060
103.2700 12.9801
103.2800 10.6495
103.2900 14.3556
103.3000 7.3276
103.3100 7.1364
103.3200 3.6090
103.3300 8.0334
103.3400 3.8270
103.3500 8.7299
103.3600 2.2738
103.3700 5.2953
103.3800 3.6716
103.3900 6.0135
103.4000 4.3199
103.4100 6.1275
103.4200 5.7667
103.4300 3.8311
103.4400 6.2648
103.4500 4.7970
103.4600 4.5688
103.4700 2.2472
103.4800 7.1420
103.4900 5.6485
103.5000 2.2960
103.5100 6.2396
103.5200 8.1232
103.5300 14.3322
103.5400 3.6627
103.5500 7.0379
103.5600 5.9106
103.5700 5.9410
103.5800 7.9325
103.5900 4.8516
103.6000 5.9882
103.6100 6.2085
103.6200 3.3119
103.6300 5.9699
103.6400 7.1520
103.6500 6.3988
103.6600 7.7458
103.6700 5.7372
103.6800 7.2347
103.6900 2.5133
103.7000 13.3799
103.7100 5.2215
103.7200 14.1535
103.7300 3.7532
103.7400 8.5079
103.7500 3.4176
103.7600 6.5660
103.7700 7.8335
103.7800 12.0497
103.7900 7.5513
103.8000 15.1830
103.8100 8.1741
103.8200 8.3084
103.8300 9.6758
103.8400 3.7928
103.8500 7.8083
103.8600 7.3249
103.8700 7.0774
103.8800 9.1179
103.8900 9.5085
103.9000 6.9424
103.9100 3.6990
103.9200 3.1013
103.9300 3.3571
103.9400 5.0725
103.9500 3.9598
103.9600 3.6846
103.9700 9.1486
103.9800 7.3969
103.9900 6.1097
104.0000 3.5201
104.0100 10.4475
104.0200 6.3841
104.0300 7.0253
104.0400 10.3103
104.0500 8.0317
104.0600 4.8954
104.0700 8.7309
104.0800 8.7399
104.0900 4.3670
104.1000 5.3720
104.1100 2.9932
104.1200 4.9115
104.1300 4.2482
104.1400 5.9574
104.1500 7.1498
104.1600 7.3406
104.1700 6.0893
104.1800 10.6190
104.1900 7.2165
104.2000 6.2658
104.2100 5.2320
104.2200 2.0757
104.2300 2.7274
104.2400 3.1375
104.2500 4.1260
104.2600 3.0908
104.2700 4.5385
104.2800 6.3216
104.2900 6.3254
104.3000 4.5069
104.3100 7.5488
104.3200 6.6332
104.3300 4.8021
104.3400 5.3767
104.3500 1.5992
104.3600 10.3163
104.3700 8.5114
104.3800 7.5367
104.3900 5.5071
104.4000 10.0842
104.4100 4.2372
104.4200 8.7808
104.4300 3.6477
104.4400 8.6042
104.4500 8.2869
104.4600 7.3638
104.4700 9.3146
104.4800 7.1108
104.4900 6.7168
104.5000 8.9976
104.5100 6.2773
104.5200 8.2485
104.5300 8.1650
104.5400 7.5433
104.5500 4.6035
104.5600 5.2321
104.5700 3.2633
104.5800 4.1026
104.5900 4.3775
104.6000 4.6097
104.6100 7.0683
104.6200 4.2418
104.6300 7.0112
104.6400 3.5901
104.6500 5.2222
104.6600 4.4714
104.6700 11.1948
104.6800 8.2798
104.6900 6.8205
104.7000 4.9152
104.7100 8.6984
104.7200 8.7890
104.7300 12.8134
104.7400 5.2529
104.7500 9.3493
104.7600 7.7052
104.7700 8.2830
104.7800 3.1521
104.7900 6.9710
104.8000 3.8973
104.8100 7.9010
104.8200 10.4919
104.8300 4.6900
104.8400 4.5935
104.8500 6.6746
104.8600 6.3714
104.8700 6.0176
104.8800 3.3647
104.8900 5.3127
104.9000 1.1528
104.9100 8.5201
104.9200 6.5643
104.9300 7.3819
104.9400 5.6748
104.9500 6.8425
104.9600 5.8791
104.9700 8.5271
104.9800 5.3798
104.9900 7.0172
105.0000 1.9624
105.0100 5.1614
105.0200 3.5511
105.0300 8.1004
105.0400 11.4038
105.0500 4.7499
105.0600 4.9620
105.0700 6.4587
105.0800 5.7437
105.0900 6.2161
105.1000 6.3326
105.1100 7.1808
105.1200 6.9199
105.1300 3.3254
105.1400 4.4779
105.1500 3.1289
105.1600 10.0223
105.1700 7.4328
105.1800 8.6195
105.1900 9.4499
105.2000 4.5023
105.2100 16.1638
105.2200 7.0326
105.2300 9.6434
105.2400 8.7677
105.2500 8.7968
105.2600 1.1123
105.2700 2.7594
105.2800 5.1715
105.2900 4.0869
105.3000 8.7299
105.3100 5.1528
105.3200 5.1772
105.3300 3.7405
105.3400 5.1329
105.3500 8.9796
105.3600 6.2233
105.3700 7.1276
105.3800 5.5210
105.3900 4.4318
105.4000 4.0986
105.4100 8.1403
105.4200 5.3350
105.4300 8.2437
105.4400 9.2502
105.4500 7.6848
105.4600 5.7860
105.4700 6.7158
105.4800 10.5368
105.4900 12.5374
105.5000 6.5405
105.5100 7.1351
105.5200 7.4576
105.5300 8.1053
105.5400 5.7723
105.5500 5.6110
105.5600 6.1836
105.5700 6.7513
105.5800 4.2165
105.5900 5.6007
105.6000 4.7979
105.6100 7.4403
105.6200 8.9771
105.6300 10.2348
105.6400 5.7730
105.6500 3.2302
105.6600 8.0266
105.6700 7.6287
105.6800 8.7903
105.6900 10.1594
105.7000 6.8530
105.7100 7.2514
105.7200 8.1402
105.7300 9.5993
105.7400 7.3886
105.7500 5.6491
105.7600 3.7263
105.7700 6.5564
105.7800 6.2351
105.7900 6.0740
105.8000 6.9420
105.8100 5.3442
105.8200 3.6241
105.8300 5.1770
105.8400 9.4074
105.8500 12.3624
105.8600 8.1152
105.8700 5.3158
105.8800 6.5358
105.8900 5.2721
105.9000 10.5132
105.9100 7.0979
105.9200 9.1523
105.9300 4.7295
105.9400 6.2823
105.9500 3.4422
105.9600 8.5248
105.9700 4.5446
105.9800 5.8012
105.9900 8.7890
106.0000 11.8170
106.0100 7.6162
106.0200 9.3730
106.0300 6.3364
106.0400 15.2727
106.0500 13.8223
106.0600 5.3134
106.0700 5.4181
106.0800 2.8876
106.0900 7.5861
106.1000 7.4683
106.1100 2.4244
106.1200 2.2925
106.1300 7.2115
106.1400 5.4547
106.1500 8.3001
106.1600 4.2683
106.1700 3.9317
106.1800 5.7150
106.1900 7.8419
106.2000 7.0430
106.2100 7.7435
106.2200 8.5370
106.2300 4.5919
106.2400 9.9498
106.2500 10.8589
106.2600 2.3360
106.2700 6.3673
106.2800 8.0126
106.2900 5.4343
106.3000 5.6198
106.3100 4.1736
106.3200 5.6151
106.3300 4.3748
106.3400 6.9373
106.3500 4.7597
106.3600 6.4612
106.3700 9.3416
106.3800 8.1268
106.3900 7.6465
106.4000 2.7687
106.4100 6.3351
106.4200 8.3227
106.4300 8.0458
106.4400 10.9584
106.4500 4.4541
106.4600 6.0816
106.4700 8.9082
106.4800 4.4005
106.4900 4.2370
106.5000 4.7163
106.5100 5.9806
106.5200 5.7142
106.5300 4.2100
106.5400 8.0463
106.5500 4.9951
106.5600 13.6310
106.5700 11.0424
106.5800 15.2759
106.5900 3.9435
106.6000 12.6973
106.6100 6.2434
106.6200 9.9459
106.6300 10.4416
106.6400 7.8046
106.6500 8.4993
106.6600 10.1156
106.6700 4.1845
106.6800 7.0527
106.6900 11.5890
106.7000 9.0901
106.7100 9.5621
106.7200 7.4573
106.7300 6.7642
106.7400 4.7045
106.7500 4.9108
106.7600 2.5251
106.7700 6.8594
106.7800 3.3414
106.7900 6.2679
106.8000 8.1154
106.8100 3.5609
106.8200 8.7723
106.8300 4.0341
106.8400 3.8832
106.8500 3.2848
106.8600 7.6485
106.8700 9.2660
106.8800 7.7320
106.8900 7.2628
106.9000 7.4801
106.9100 15.5091
106.9200 11.0972
106.9300 6.3020
106.9400 10.1500
106.9500 4.6940
106.9600 12.3866
106.9700 3.9056
106.9800 9.4571
106.9900 3.6134
107.0000 11.9877
107.0100 6.0210
107.0200 14.7220
107.0300 7.9319
107.0400 3.6151
107.0500 5.8773
107.0600 5.1306
107.0700 5.5653
107.0800 0.7820
107.0900 4.2093
107.1000 5.5664
107.1100 7.3213
107.1200 3.4364
107.1300 5.4947
107.1400 6.3690
107.1500 4.9301
107.1600 4.1049
107.1700 4.6229
107.1800 9.2294
107.1900 8.4333
107.2000 4.8485
107.2100 5.5308
107.2200 5.1810
107.2300 0.4837
107.2400 5.5590
107.2500 5.9874
107.2600 4.5964
107.2700 5.5066
107.2800 7.8756
107.2900 7.0993
107.3000 9.5381
107.3100 3.6881
107.3200 8.1783
107.3300 4.1193
107.3400 4.3016
107.3500 6.4457
107.3600 9.1980
107.3700 4.8389
107.3800 8.8108
107.3900 6.3792
107.4000 5.5305
107.4100 2.5317
107.4200 2.0382
107.4300 7.4184
107.4400 7.1321
107.4500 2.3790
107.4600 4.0255
107.4700 4.0676
107.4800 6.1286
107.4900 6.7335
107.5000 8.4627
107.5100 8.0701
107.5200 7.2441
107.5300 7.4025
107.5400 2.2142
107.5500 4.8372
107.5600 7.5066
107.5700 3.9116
107.5800 6.1850
107.5900 4.8758
107.6000 5.4079
107.6100 1.0306
107.6200 3.5807
107.6300 6.3159
107.6400 3.2947
107.6500 3.3158
107.6600 5.9585
107.6700 4.1466
107.6800 1.8240
107.6900 2.9930
107.7000 6.4914
107.7100 2.7647
107.7200 7.5397
107.7300 7.2673
107.7400 5.5223
107.7500 9.0749
107.7600 5.3882
107.7700 6.2203
107.7800 8.2785
107.7900 5.8487
107.8000 5.2101
107.8100 4.3285
107.8200 10.7935
107.8300 7.2007
107.8400 10.4053
107.8500 3.4624
107.8600 9.7336
107.8700 8.6501
107.8800 3.1653
107.8900 4.1035
107.9000 6.6730
107.9100 5.6216
107.9200 4.4019
107.9300 3.5695
107.9400 6.3074
107.9500 6.6196
107.9600 4.2856
107.9700 0.9815
107.9800 3.2098
107.9900 5.8075
108.0000 9.5325
108.0100 6.2240
108.0200 8.0541
108.0300 10.3307
108.0400 6.0739
108.0500 8.8130
108.0600 4.7728
108.0700 5.3397
108.0800 7.3987
108.0900 11.5144
108.1000 7.8460
108.1100 5.5173
108.1200 5.8101
108.1300 5.9358
108.1400 6.2524
108.1500 6.8843
108.1600 6.3389
108.1700 14.3358
108.1800 6.2875
108.1900 13.6051
108.2000 7.0173
108.2100 11.8808
108.2200 10.3596
108.2300 6.9600
108.2400 8.0753
108.2500 13.2406
108.2600 5.2331
108.2700 7.6578
108.2800 3.3905
108.2900 8.3075
108.3000 4.2443
108.3100 8.9576
108.3200 5.2830
108.3300 5.3595
108.3400 6.8175
108.3500 8.5064
108.3600 5.2996
108.3700 3.9678
108.3800 4.0088
108.3900 4.0577
108.4000 3.2815
108.4100 3.8291
108.4200 8.1932
108.4300 2.8499
108.4400 9.4756
108.4500 6.2141
108.4600 12.2123
108.4700 7.0334
108.4800 9.0600
108.4900 2.3870
108.5000 4.0656
108.5100 6.4871
108.5200 5.3313
108.5300 8.9412
108.5400 9.6641
108.5500 5.5129
108.5600 5.0855
108.5700 3.7138
108.5800 5.9881
108.5900 5.3920
108.6000 7.4035
108.6100 7.7222
108.6200 6.0608
108.6300 7.9695
108.6400 7.7650
108.6500 8.6398
108.6600 8.2419
108.6700 9.7048
108.6800 9.5581
108.6900 4.4124
108.7000 8.3116
108.7100 10.2665
108.7200 9.0890
108.7300 2.2318
108.7400 7.6445
108.7500 7.1754
108.7600 4.9079
108.7700 5.3549
108.7800 4.0918
108.7900 6.7133
108.8000 4.6090
108.8100 9.2317
108.8200 6.7260
108.8300 8.1428
108.8400 8.4573
108.8500 8.5800
108.8600 6.6011
108.8700 6.6682
108.8800 5.3265
108.8900 6.5375
108.9000 3.4173
108.9100 6.9319
108.9200 5.5758
108.9300 5.7045
108.9400 4.8585
108.9500 3.9755
108.9600 4.2685
108.9700 5.1982
108.9800 2.9786
108.9900 5.1510
109.0000 6.8098
109.0100 7.0518
109.0200 10.9434
109.0300 13.9960
109.0400 6.6464
109.0500 6.9289
109.0600 6.1812
109.0700 5.2540
109.0800 6.8750
109.0900 4.5132
109.1000 6.7489
109.1100 2.5304
109.1200 4.2959
109.1300 3.1987
109.1400 4.1280
109.1500 8.9663
109.1600 6.2386
109.1700 3.7381
109.1800 6.6299
109.1900 6.7875
109.2000 4.6180
109.2100 13.1304
109.2200 7.6818
109.2300 13.3277
109.2400 3.1208
109.2500 5.3708
109.2600 4.9474
109.2700 6.1007
109.2800 11.6504
109.2900 5.5199
109.3000 5.9910
109.3100 4.0489
109.3200 7.7596
109.3300 7.4507
109.3400 3.4672
109.3500 6.1422
109.3600 6.2728
109.3700 6.6331
109.3800 6.6008
109.3900 6.5945
109.4000 4.6817
109.4100 13.7941
109.4200 6.5925
109.4300 13.2175
109.4400 2.4374
109.4500 15.0796
109.4600 7.2802
109.4700 12.8779
109.4800 5.1402
109.4900 8.6632
109.5000 7.3890
109.5100 6.9984
109.5200 9.0227
109.5300 7.2070
109.5400 3.2272
109.5500 10.1035
109.5600 3.3182
109.5700 11.0954
109.5800 5.8548
109.5900 6.9207
109.6000 6.2285
109.6100 2.3677
109.6200 3.5341
109.6300 5.6867
109.6400 9.4554
109.6500 6.4030
109.6600 7.3151
109.6700 10.4110
109.6800 8.7910
109.6900 4.9876
109.7000 6.4706
109.7100 6.4024
109.7200 3.8126
109.7300 5.5739
109.7400 2.6037
109.7500 5.0725
109.7600 2.1821
109.7700 4.2950
109.7800 8.9442
109.7900 5.8134
109.8000 7.0957
109.8100 3.7091
109.8200 5.6750
109.8300 2.1276
109.8400 5.1455
109.8500 6.6011
109.8600 6.0314
109.8700 7.9873
109.8800 5.1283
109.8900 7.8312
109.9000 4.5299
109.9100 9.0871
109.9200 4.3358
109.9300 5.1743
109.9400 4.6506
109.9500 7.2967
109.9600 5.4764
109.9700 7.3802
109.9800 7.2421
109.9900 3.3472
110.0000 7.0050
110.0100 7.4332
110.0200 4.7298
110.0300 6.4119
110.0400 4.0923
110.0500 7.0678
110.0600 4.2498
110.0700 12.1243
110.0800 4.5714
110.0900 13.9382
110.1000 5.3857
110.1100 5.1648
110.1200 3.7319
110.1300 5.2645
110.1400 4.7476
110.1500 8.0769
110.1600 10.9655
110.1700 8.6747
110.1800 5.1798
110.1900 5.8927
110.2000 3.0610
110.2100 9.9718
110.2200 8.8031
110.2300 13.0284
110.2400 5.1309
110.2500 10.3478
110.2600 4.9860
110.2700 6.8041
110.2800 4.3675
110.2900 6.1511
110.3000 6.2609
110.3100 4.5681
110.3200 5.3223
110.3300 11.5367
110.3400 7.9999
110.3500 9.2790
110.3600 11.0395
110.3700 9.0665
110.3800 6.5350
110.3900 5.1804
110.4000 2.4919
110.4100 7.6132
110.4200 6.4363
110.4300 4.5873
110.4400 5.4221
110.4500 6.6150
110.4600 3.1630
110.4700 6.0760
110.4800 3.9968
110.4900 6.1413
110.5000 1.2423
110.5100 2.0489
110.5200 2.5517
110.5300 5.3505
110.5400 2.4709
110.5500 2.2341
110.5600 9.9738
110.5700 5.4344
110.5800 7.8094
110.5900 4.3389
110.6000 9.2080
110.6100 9.5692
110.6200 5.9625
110.6300 4.9098
110.6400 7.9918
110.6500 7.2870
110.6600 4.8290
110.6700 3.7520
110.6800 5.1653
110.6900 4.0840
110.7000 3.9960
110.7100 6.6796
110.7200 4.2969
110.7300 5.1003
110.7400 5.6530
110.7500 7.0831
110.7600 7.1348
110.7700 9.4596
110.7800 7.4112
110.7900 5.8471
110.8000 5.8484
110.8100 5.8431
110.8200 9.2873
110.8300 4.2287
110.8400 4.2547
110.8500 6.5162
110.8600 1.5089
110.8700 2.6686
110.8800 6.8512
110.8900 3.8727
110.9000 10.2136
110.9100 5.9396
110.9200 5.4101
110.9300 13.2481
110.9400 6.3683
110.9500 12.7173
110.9600 8.0528
110.9700 3.3952
110.9800 7.2371
110.9900 5.4950
111.0000 4.1969
111.0100 5.1708
111.0200 7.1189
111.0300 10.3196
111.0400 4.5968
111.0500 7.6511
111.0600 7.3524
111.0700 8.0983
111.0800 4.8504
111.0900 5.7933
111.1000 2.4667
111.1100 5.5232
111.1200 1.5011
111.1300 5.9393
111.1400 3.3423
111.1500 10.6424
111.1600 7.2759
111.1700 8.3204
111.1800 4.8500
111.1900 4.7782
111.2000 5.7010
111.2100 6.2389
111.2200 6.4181
111.2300 9.0772
111.2400 3.3897
111.2500 5.8139
111.2600 4.6667
111.2700 6.5197
111.2800 4.4235
111.2900 5.0811
111.3000 6.7723
111.3100 2.8959
111.3200 3.8626
111.3300 6.2577
111.3400 3.1053
111.3500 3.8836
111.3600 7.8962
111.3700 7.2743
111.3800 7.1319
111.3900 3.4601
111.4000 5.1632
111.4100 6.1036
111.4200 4.5523
111.4300 3.9441
111.4400 3.9832
111.4500 5.0506
111.4600 3.0527
111.4700 5.4761
111.4800 2.1829
111.4900 4.0425
111.5000 6.7069
111.5100 3.1653
111.5200 8.3451
111.5300 10.1546
111.5400 6.6204
111.5500 5.4439
111.5600 5.3570
111.5700 9.2282
111.5800 5.4109
111.5900 7.3221
111.6000 8.7046
111.6100 11.5254
111.6200 6.8642
111.6300 3.5290
111.6400 5.8608
111.6500 9.4907
111.6600 7.2911
111.6700 5.2316
111.6800 7.6213
111.6900 5.4910
111.7000 3.1921
111.7100 5.4377
111.7200 9.1934
111.7300 7.7658
111.7400 6.2364
111.7500 4.3772
111.7600 8.8115
111.7700 5.8260
111.7800 17.2087
111.7900 9.0711
111.8000 7.0429
111.8100 8.1287
111.8200 13.4990
111.8300 5.2757
111.8400 9.1041
111.8500 4.6144
111.8600 8.2940
111.8700 10.2987
111.8800 8.1586
111.8900 3.4897
111.9000 5.6321
111.9100 2.0249
111.9200 7.4263
111.9300 2.1338
111.9400 4.7349
111.9500 5.2500
111.9600 4.5282
111.9700 5.1586
111.9800 4.4942
111.9900 5.3264
112.0000 6.8185
112.0100 9.4212
112.0200 5.7724
112.0300 5.0738
112.0400 4.8114
112.0500 5.2223
112.0600 3.7608
112.0700 3.6590
112.0800 2.4894
112.0900 5.1647
112.1000 5.6829
112.1100 8.6599
112.1200 9.5953
112.1300 8.0586
112.1400 7.5698
112.1500 3.8835
112.1600 6.9499
112.1700 5.5003
112.1800 8.9602
112.1900 10.2528
112.2000 7.6394
112.2100 10.7658
112.2200 9.3220
112.2300 9.2855
112.2400 10.4940
112.2500 5.1294
112.2600 5.3951
112.2700 2.5034
112.2800 2.1335
112.2900 9.9384
112.3000 9.1933
112.3100 4.6762
112.3200 10.0888
112.3300 9.6084
112.3400 8.6106
112.3500 7.3840
112.3600 9.1645
112.3700 8.9018
112.3800 9.0194
112.3900 6.6244
112.4000 8.3727
112.4100 9.3050
112.4200 7.3620
112.4300 8.5287
112.4400 5.1335
112.4500 13.4144
112.4600 6.8215
112.4700 16.5692
112.4800 9.2792
112.4900 10.2242
112.5000 7.6155
112.5100 5.5222
112.5200 9.0773
112.5300 4.7403
112.5400 4.6374
112.5500 5.6546
112.5600 7.9189
112.5700 10.6447
112.5800 7.3307
112.5900 8.6695
112.6000 6.7029
112.6100 11.4471
112.6200 6.3319
112.6300 6.3589
112.6400 6.6501
112.6500 7.8052
112.6600 4.2454
112.6700 5.7498
112.6800 8.9739
112.6900 5.3746
112.7000 6.4647
112.7100 10.0211
112.7200 6.3252
112.7300 7.1911
112.7400 7.7890
112.7500 3.5682
112.7600 4.9893
112.7700 4.4696
112.7800 6.1845
112.7900 8.0749
112.8000 5.9721
112.8100 4.0695
112.8200 7.1889
112.8300 7.1609
112.8400 3.0327
112.8500 3.3257
112.8600 7.1131
112.8700 9.5769
112.8800 8.0809
112.8900 11.0819
112.9000 15.5201
112.9100 7.5293
112.9200 14.4043
112.9300 11.9196
112.9400 8.6248
112.9500 10.6133
112.9600 7.7713
112.9700 3.1361
112.9800 4.1684
112.9900 8.3281
113.0000 7.7007
113.0100 11.9179
113.0200 8.2997
113.0300 4.0359
113.0400 7.5070
113.0500 3.4768
113.0600 14.1671
113.0700 5.0893
113.0800 7.4263
113.0900 2.1564
113.1000 6.5815
113.1100 8.3333
113.1200 9.9478
113.1300 3.0954
113.1400 3.1645
113.1500 8.0965
113.1600 2.1349
113.1700 5.2338
113.1800 3.1045
113.1900 2.3262
113.2000 3.9937
113.2100 2.2545
113.2200 7.8893
113.2300 6.9957
113.2400 5.6112
113.2500 9.3500
113.2600 5.4646
113.2700 8.1096
113.2800 3.6328
113.2900 5.5476
113.3000 3.8687
113.3100 6.6811
113.3200 3.5369
113.3300 6.5630
113.3400 6.2639
113.3500 5.4166
113.3600 5.1891
113.3700 7.2860
113.3800 7.4853
113.3900 6.3494
113.4000 6.7058
113.4100 8.0309
113.4200 2.0940
113.4300 7.5772
113.4400 5.4950
113.4500 14.0681
113.4600 3.3299
113.4700 8.2757
113.4800 9.6876
113.4900 10.1321
113.5000 8.4075
113.5100 11.7600
113.5200 9.9325
113.5300 14.0653
113.5400 6.2302
113.5500 13.9801
113.5600 6.7097
113.5700 8.0615
113.5800 9.5957
113.5900 4.9704
113.6000 6.8114
113.6100 3.1873
113.6200 2.0924
113.6300 3.6953
113.6400 6.0025
113.6500 4.4612
113.6600 7.2725
113.6700 5.9499
113.6800 7.1962
113.6900 3.0771
113.7000 5.3741
113.7100 5.9613
113.7200 8.9748
113.7300 9.8097
113.7400 6.9375
113.7500 4.0822
113.7600 6.0179
113.7700 5.4011
113.7800 6.1531
113.7900 10.4441
113.8000 5.8027
113.8100 5.1877
113.8200 9.3357
113.8300 7.4157
113.8400 9.4377
113.8500 8.6909
113.8600 10.5116
113.8700 12.5172
113.8800 13.0439
113.8900 8.9187
113.9000 6.3010
113.9100 6.5791
113.9200 7.6038
113.9300 7.2495
113.9400 5.7546
113.9500 4.2291
113.9600 9.1582
113.9700 3.8313
113.9800 5.2518
113.9900 3.0300
114.0000 13.2586
114.0100 5.3877
114.0200 7.1691
114.0300 5.3021
114.0400 5.6666
114.0500 6.6263
114.0600 2.9780
114.0700 4.8737
114.0800 7.5414
114.0900 8.6475
114.1000 3.2457
114.1100 5.6543
114.1200 8.0886
114.1300 10.8305
114.1400 3.6320
114.1500 4.8678
114.1600 5.4021
114.1700 6.6699
114.1800 4.2914
114.1900 7.0146
114.2000 9.9951
114.2100 6.5115
114.2200 6.6668
114.2300 8.8731
114.2400 9.8167
114.2500 6.3345
114.2600 4.7181
114.2700 4.8272
114.2800 4.8833
114.2900 2.2485
114.3000 3.6748
114.3100 3.1695
114.3200 2.2813
114.3300 6.0759
114.3400 4.5203
114.3500 4.8496
114.3600 9.7891
114.3700 8.4975
114.3800 5.0834
114.3900 13.1545
114.4000 10.4265
114.4100 7.5511
114.4200 7.3433
114.4300 4.3781
114.4400 8.6352
114.4500 4.7631
114.4600 6.0423
114.4700 6.4126
114.4800 8.7689
114.4900 6.4027
114.5000 5.2459
114.5100 11.0306
114.5200 4.5413
114.5300 1.2151
114.5400 7.3174
114.5500 13.9062
114.5600 10.5191
114.5700 10.2862
114.5800 4.6698
114.5900 7.3126
114.6000 6.6800
114.6100 9.9726
114.6200 9.2486
114.6300 8.4230
114.6400 9.7002
114.6500 10.4904
114.6600 11.9313
114.6700 17.4107
114.6800 15.5866
114.6900 16.7434
114.7000 13.1554
114.7100 13.5395
114.7200 14.7900
114.7300 19.7205
114.7400 6.5216
114.7500 14.1972
114.7600 10.6265
114.7700 8.1730
114.7800 12.2813
114.7900 13.0741
114.8000 5.8751
114.8100 7.6380
114.8200 6.7479
114.8300 6.0686
114.8400 8.3594
114.8500 4.1976
114.8600 9.7916
114.8700 7.7598
114.8800 8.4234
114.8900 9.6252
114.9000 4.8580
114.9100 6.5789
114.9200 4.7954
114.9300 8.1163
114.9400 5.6110
114.9500 5.2663
114.9600 2.8415
114.9700 10.5192
114.9800 11.1637
114.9900 7.3722
115.0000 5.7470
115.0100 8.1627
115.0200 6.4497
115.0300 6.7093
115.0400 8.6025
115.0500 3.2557
115.0600 8.2870
115.0700 9.2759
115.0800 7.2001
115.0900 11.7293
115.1000 4.4786
115.1100 8.6619
115.1200 9.7986
115.1300 6.6614
115.1400 14.5239
115.1500 9.7350
115.1600 6.3663
115.1700 7.7164
115.1800 6.9369
115.1900 3.1761
115.2000 8.9448
115.2100 5.6948
115.2200 6.6330
115.2300 6.9542
115.2400 9.3013
115.2500 5.5679
115.2600 6.3136
115.2700 5.1150
115.2800 5.8617
115.2900 7.4371
115.3000 5.0659
115.3100 9.7799
115.3200 5.8788
115.3300 5.5160
115.3400 6.3634
115.3500 6.1679
115.3600 10.8640
115.3700 11.5768
115.3800 4.2865
115.3900 6.8373
115.4000 5.0239
115.4100 4.0036
115.4200 8.1583
115.4300 11.9146
115.4400 12.0407
115.4500 11.6945
115.4600 11.1645
115.4700 13.2060
115.4800 13.4906
115.4900 14.4492
115.5000 12.1683
115.5100 15.1182
115.5200 11.5780
115.5300 14.3653
115.5400 13.8491
115.5500 12.9662
115.5600 7.0053
115.5700 12.6874
115.5800 8.2342
115.5900 11.0689
115.6000 7.9266
115.6100 13.0188
115.6200 8.5087
115.6300 14.3597
115.6400 14.8369
115.6500 9.3814
115.6600 9.7180
115.6700 17.8045
115.6800 6.9136
115.6900 12.0761
115.7000 8.5258
115.7100 13.3343
115.7200 11.9790
115.7300 14.8657
115.7400 14.1087
115.7500 19.3430
115.7600 11.2721
115.7700 10.3293
115.7800 6.3547
115.7900 10.8648
115.8000 9.5359
115.8100 16.0594
115.8200 10.1352
115.8300 14.8103
115.8400 13.2878
115.8500 18.0913
115.8600 13.6477
115.8700 12.4387
115.8800 17.2761
115.8900 10.6784
115.9000 14.8689
115.9100 20.8884
115.9200 15.1357
115.9300 8.3512
115.9400 13.0594
115.9500 15.4022
115.9600 10.7209
115.9700 15.8644
115.9800 13.0746
115.9900 10.7479
116.0000 17.7078
116.0100 12.1680
116.0200 12.7697
116.0300 15.7924
116.0400 9.5856
116.0500 9.8282
116.0600 16.5728
116.0700 10.0534
116.0800 11.1171
116.0900 15.1056
116.1000 11.9605
116.1100 15.5080
116.1200 12.5044
116.1300 19.6131
116.1400 11.5676
116.1500 9.0762
116.1600 9.5690
116.1700 18.2615
116.1800 11.6483
116.1900 10.7839
116.2000 16.4825
116.2100 12.2699
116.2200 7.1011
116.2300 9.4917
116.2400 13.5128
116.2500 13.3324
116.2600 14.5133
116.2700 16.1729
116.2800 11.1195
116.2900 13.0726
116.3000 13.7639
116.3100 13.8677
116.3200 8.0059
116.3300 8.5022
116.3400 6.3988
116.3500 7.2967
116.3600 11.3822
116.3700 9.2849
116.3800 6.4210
116.3900 7.9882
116.4000 9.1325
116.4100 7.9342
116.4200 7.6847
116.4300 6.9221
116.4400 9.3781
116.4500 14.5283
116.4600 6.6132
116.4700 10.0845
116.4800 9.2487
116.4900 6.7017
116.5000 4.2137
116.5100 2.1295
116.5200 6.8335
116.5300 8.2385
116.5400 5.5018
116.5500 11.5035
116.5600 7.2019
116.5700 8.3956
116.5800 5.5957
116.5900 7.7917
116.6000 9.9342
116.6100 10.2484
116.6200 6.4261
116.6300 8.0974
116.6400 9.0770
116.6500 17.1362
116.6600 5.4903
116.6700 19.5665
116.6800 9.6838
116.6900 21.7199
116.7000 6.2970
116.7100 13.6631
116.7200 7.2319
116.7300 11.6399
116.7400 6.1741
116.7500 4.2158
116.7600 8.0342
116.7700 5.9760
116.7800 6.3874
116.7900 7.2934
116.8000 7.8764
116.8100 4.8869
116.8200 13.1521
116.8300 7.4236
116.8400 6.8799
116.8500 5.1149
116.8600 8.3706
116.8700 5.5220
116.8800 10.1730
116.8900 8.9169
116.9000 10.4611
116.9100 13.0491
116.9200 3.8625
116.9300 7.2883
116.9400 6.8189
116.9500 10.9521
116.9600 3.3123
116.9700 7.3550
116.9800 5.8936
116.9900 9.1546
117.0000 9.1541
117.0100 12.4994
117.0200 2.8006
117.0300 6.2611
117.0400 6.4093
117.0500 9.2012
117.0600 10.1853
117.0700 12.7728
117.0800 10.1916
117.0900 6.6488
117.1000 10.7037
117.1100 8.2987
117.1200 12.6282
117.1300 7.8285
117.1400 12.6951
117.1500 6.9592
117.1600 14.2084
117.1700 2.2735
117.1800 13.5163
117.1900 8.1456
117.2000 7.0354
117.2100 4.0630
117.2200 6.5150
117.2300 10.6603
117.2400 9.5261
117.2500 6.7815
117.2600 5.7131
117.2700 7.3884
117.2800 9.0319
117.2900 9.3891
117.3000 7.9234
117.3100 9.8802
117.3200 7.1446
117.3300 6.8070
117.3400 10.1741
117.3500 10.0904
117.3600 4.3839
117.3700 5.1136
117.3800 8.0208
117.3900 8.0432
117.4000 4.8936
117.4100 11.0781
117.4200 6.8528
117.4300 11.1312
117.4400 6.7294
117.4500 8.1943
117.4600 11.1226
117.4700 3.4798
117.4800 11.1024
117.4900 3.2605
117.5000 8.2750
117.5100 4.2641
117.5200 8.2291
117.5300 7.8380
117.5400 6.5205
117.5500 7.1217
117.5600 4.8480
117.5700 4.0999
117.5800 3.7708
117.5900 8.1622
117.6000 4.6783
117.6100 6.1370
117.6200 7.0729
117.6300 8.1083
117.6400 6.4433
117.6500 4.2799
117.6600 5.5114
117.6700 4.8797
117.6800 5.8934
117.6900 7.0593
117.7000 3.3206
117.7100 6.0928
117.7200 6.2225
117.7300 8.7466
117.7400 6.6108
117.7500 3.6899
117.7600 3.1456
117.7700 5.9291
117.7800 2.4211
117.7900 7.0541
117.8000 6.8742
117.8100 6.3118
117.8200 6.1924
117.8300 3.2270
117.8400 3.7552
117.8500 5.9545
117.8600 4.6733
117.8700 8.3121
117.8800 6.3657
117.8900 7.3605
117.9000 5.5357
117.9100 10.0468
117.9200 4.3575
117.9300 6.7514
117.9400 10.4824
117.9500 7.7599
117.9600 8.2744
117.9700 7.8179
117.9800 6.4673
117.9900 3.0139
118.0000 3.6102
118.0100 2.9608
118.0200 6.4102
118.0300 4.8842
118.0400 8.5505
118.0500 4.7532
118.0600 4.7596
118.0700 7.9199
118.0800 9.4527
118.0900 7.3652
118.1000 6.4173
118.1100 5.8116
118.1200 10.3498
118.1300 3.2137
118.1400 2.6198
118.1500 7.0647
118.1600 5.3552
118.1700 6.7039
118.1800 2.4599
118.1900 6.8169
118.2000 4.2552
118.2100 6.0488
118.2200 0.3876
118.2300 11.9218
118.2400 4.1013
118.2500 8.7672
118.2600 3.4232
118.2700 9.5250
118.2800 4.0069
118.2900 4.6592
118.3000 4.4222
118.3100 6.1080
118.3200 3.5352
118.3300 5.1552
118.3400 4.4608
118.3500 5.1911
118.3600 3.6791
118.3700 1.9788
118.3800 6.5036
118.3900 3.2849
118.4000 2.9984
118.4100 5.2674
118.4200 2.6607
118.4300 3.9936
118.4400 10.1317
118.4500 5.5412
118.4600 8.4592
118.4700 6.1541
118.4800 6.0460
118.4900 4.5458
118.5000 7.8649
118.5100 5.5888
118.5200 8.3266
118.5300 6.0797
118.5400 11.5278
118.5500 2.0462
118.5600 7.7483
118.5700 5.7469
118.5800 8.7407
118.5900 5.5345
118.6000 3.4657
118.6100 5.4572
118.6200 3.0691
118.6300 7.3536
118.6400 12.2078
118.6500 3.4397
118.6600 6.2428
118.6700 6.2577
118.6800 5.9289
118.6900 3.4734
118.7000 5.7781
118.7100 2.9886
118.7200 8.2597
118.7300 11.2874
118.7400 9.6340
118.7500 0.7818
118.7600 4.0458
118.7700 6.8966
118.7800 2.8759
118.7900 6.1654
118.8000 3.4563
118.8100 11.9095
118.8200 5.2757
118.8300 7.0674
118.8400 7.6693
118.8500 6.1197
118.8600 4.9537
118.8700 1.2900
118.8800 5.8902
118.8900 2.4223
118.9000 2.9333
118.9100 3.6607
118.9200 2.8529
118.9300 7.9196
118.9400 11.2778
118.9500 4.2852
118.9600 7.0605
118.9700 3.5368
118.9800 8.5220
118.9900 8.1461
119.0000 8.1339
119.0100 6.4868
119.0200 10.2592
119.0300 5.4814
119.0400 9.0892
119.0500 5.6217
119.0600 6.1166
119.0700 6.0160
119.0800 3.2019
119.0900 9.3407
119.1000 10.5658
119.1100 4.5841
119.1200 8.7411
119.1300 9.3956
119.1400 7.7051
119.1500 7.5095
119.1600 5.4445
119.1700 5.7246
119.1800 2.2243
119.1900 4.1273
119.2000 6.5308
119.2100 3.1518
119.2200 9.9045
119.2300 7.8556
119.2400 6.4893
119.2500 9.6699
119.2600 10.9039
119.2700 10.5486
119.2800 5.0949
119.2900 3.1294
119.3000 9.3155
119.3100 7.5602
119.3200 6.0504
119.3300 2.1193
119.3400 3.7579
119.3500 6.6034
119.3600 3.4889
119.3700 1.9973
119.3800 8.1287
119.3900 2.7515
119.4000 5.1407
119.4100 8.2415
119.4200 6.0684
119.4300 6.1131
119.4400 5.9381
119.4500 2.4902
119.4600 6.2037
119.4700 9.3133
119.4800 4.3369
119.4900 1.7887
119.5000 6.8462
119.5100 7.5968
119.5200 14.2003
119.5300 6.9980
119.5400 6.0068
119.5500 6.2307
119.5600 6.4498
119.5700 3.4289
119.5800 5.5821
119.5900 5.4782
119.6000 2.0997
119.6100 6.0619
119.6200 8.1474
119.6300 6.1523
119.6400 9.0604
119.6500 6.4250
119.6600 10.9247
119.6700 7.1885
119.6800 7.4735
119.6900 3.9408
119.7000 9.7689
119.7100 3.6358
119.7200 8.6343
119.7300 13.0135
119.7400 7.7657
119.7500 5.7721
119.7600 10.4193
119.7700 5.5185
119.7800 6.8553
119.7900 3.4168
119.8000 6.0967
119.8100 7.7818
119.8200 6.3823
119.8300 6.7829
119.8400 8.6412
119.8500 5.9590
119.8600 3.2298
119.8700 4.8251
119.8800 6.6609
119.8900 6.5109
119.9000 1.6164
119.9100 4.0544
119.9200 8.5718
119.9300 2.2414
119.9400 6.6379
119.9500 7.9736
119.9600 5.4427
119.9700 5.7940
119.9800 6.9031
119.9900 6.1027
