#Collected Data-120
#Intensity_unit=counts
#Attenuator_coefficient=1.000000
40.0000 51.4819
40.0100 55.4964
40.0200 41.7215
40.0300 66.7081
40.0400 47.3297
40.0500 58.7974
40.0600 50.5657
40.0700 63.7646
40.0800 66.9608
40.0900 51.6880
40.1000 54.3836
40.1100 46.1871
40.1200 46.8860
40.1300 46.9527
40.1400 39.4746
40.1500 43.3011
40.1600 58.8641
40.1700 50.4506
40.1800 52.5038
40.1900 50.8120
40.2000 39.7116
40.2100 46.6208
40.2200 44.9537
40.2300 48.2692
40.2400 47.1352
40.2500 41.7780
40.2600 37.8472
40.2700 42.7403
40.2800 52.5697
40.2900 52.8701
40.3000 61.0774
40.3100 44.8501
40.3200 51.0541
40.3300 32.4067
40.3400 42.4488
40.3500 39.9116
40.3600 45.4447
40.3700 47.6414
40.3800 40.8703
40.3900 53.2506
40.4000 54.4424
40.4100 47.8442
40.4200 54.3317
40.4300 53.3753
40.4400 63.6859
40.4500 46.6355
40.4600 42.6047
40.4700 55.8419
40.4800 67.5704
40.4900 42.6950
40.5000 39.7323
40.5100 43.9687
40.5200 52.2285
40.5300 53.0386
40.5400 45.9796
40.5500 41.7190
40.5600 40.3765
40.5700 48.2867
40.5800 48.1221
40.5900 46.6831
40.6000 48.3013
40.6100 43.1929
40.6200 45.3516
40.6300 44.1138
40.6400 39.8720
40.6500 45.9519
40.6600 49.9019
40.6700 42.6617
40.6800 51.4221
40.6900 61.7584
40.7000 47.7736
40.7100 51.1804
40.7200 55.6153
40.7300 45.4295
40.7400 29.6408
40.7500 43.7244
40.7600 62.5187
40.7700 55.8270
40.7800 46.2313
40.7900 34.4083
40.8000 60.5721
40.8100 51.2456
40.8200 54.5934
40.8300 46.0588
40.8400 46.1086
40.8500 49.2777
40.8600 53.6236
40.8700 53.1244
40.8800 62.2315
40.8900 57.5562
40.9000 50.4997
40.9100 43.1451
40.9200 53.7108
40.9300 47.4749
40.9400 54.1150
40.9500 55.5458
40.9600 52.9533
40.9700 44.0517
40.9800 39.5978
40.9900 46.2077
41.0000 40.5577
41.0100 55.2573
41.0200 58.9639
41.0300 60.1391
41.0400 54.9334
41.0500 43.1341
41.0600 50.8982
41.0700 52.6326
41.0800 46.6630
41.0900 39.9200
41.1000 60.7368
41.1100 35.9887
41.1200 44.9284
41.1300 57.0065
41.1400 46.0571
41.1500 55.7418
41.1600 58.0695
41.1700 54.0514
41.1800 40.7596
41.1900 44.7730
41.2000 58.7997
41.2100 48.3844
41.2200 32.3752
41.2300 49.5685
41.2400 42.5270
41.2500 43.1111
41.2600 49.7416
41.2700 51.4589
41.2800 46.2184
41.2900 61.1433
41.3000 46.1895
41.3100 57.5321
41.3200 60.9728
41.3300 53.4074
41.3400 58.6994
41.3500 45.5053
41.3600 50.3995
41.3700 47.7156
41.3800 48.5295
41.3900 42.1520
41.4000 56.5689
41.4100 44.2175
41.4200 53.1011
41.4300 55.8746
41.4400 38.1898
41.4500 51.4776
41.4600 45.4035
41.4700 43.6013
41.4800 53.4403
41.4900 48.2648
41.5000 57.9867
41.5100 50.2457
41.5200 42.9208
41.5300 48.2677
41.5400 41.2937
41.5500 46.1147
41.5600 48.4816
41.5700 60.3235
41.5800 56.9203
41.5900 48.1142
41.6000 48.3494
41.6100 58.9671
41.6200 48.3951
41.6300 55.2585
41.6400 55.6072
41.6500 40.9596
41.6600 51.8666
41.6700 50.3925
41.6800 58.6134
41.6900 54.3929
41.7000 48.1497
41.7100 66.2766
41.7200 61.8519
41.7300 57.1639
41.7400 43.7977
41.7500 53.2278
41.7600 53.3270
41.7700 46.4555
41.7800 55.4243
41.7900 60.0269
41.8000 54.1242
41.8100 51.6257
41.8200 67.1128
41.8300 70.1420
41.8400 45.0930
41.8500 48.7230
41.8600 56.9177
41.8700 49.5846
41.8800 42.3989
41.8900 58.6995
41.9000 55.4461
41.9100 52.4782
41.9200 49.8720
41.9300 59.9636
41.9400 54.2025
41.9500 57.0720
41.9600 50.3307
41.9700 59.3548
41.9800 48.6509
41.9900 64.0159
42.0000 57.2525
42.0100 50.2028
42.0200 39.2857
42.0300 54.2757
42.0400 59.9395
42.0500 52.6141
42.0600 42.4695
42.0700 69.1693
42.0800 65.6446
42.0900 65.4310
42.1000 57.8055
42.1100 58.5080
42.1200 62.1347
42.1300 64.4703
42.1400 64.2613
42.1500 65.3299
42.1600 65.8138
42.1700 59.3067
42.1800 53.2215
42.1900 73.1288
42.2000 69.9351
42.2100 60.1036
42.2200 57.6140
42.2300 67.5967
42.2400 57.4854
42.2500 58.2473
42.2600 47.1110
42.2700 63.4445
42.2800 54.3457
42.2900 69.5057
42.3000 60.0895
42.3100 66.5965
42.3200 59.1700
42.3300 51.2779
42.3400 57.0049
42.3500 69.5446
42.3600 65.2457
42.3700 57.9097
42.3800 61.5732
42.3900 57.2591
42.4000 56.2248
42.4100 59.5191
42.4200 59.9276
42.4300 69.0832
42.4400 60.4593
42.4500 66.2636
42.4600 69.3943
42.4700 48.6636
42.4800 57.9846
42.4900 58.7706
42.5000 76.7239
42.5100 69.3035
42.5200 62.7923
42.5300 66.8101
42.5400 58.2601
42.5500 63.3350
42.5600 61.0134
42.5700 66.1747
42.5800 61.1612
42.5900 57.8969
42.6000 64.0430
42.6100 68.7003
42.6200 71.5526
42.6300 67.8277
42.6400 49.6286
42.6500 53.3975
42.6600 54.9594
42.6700 75.3901
42.6800 54.1509
42.6900 57.4341
42.7000 67.1764
42.7100 75.6047
42.7200 58.8613
42.7300 57.9448
42.7400 59.2929
42.7500 55.5739
42.7600 58.9935
42.7700 55.3782
42.7800 62.0837
42.7900 62.6162
42.8000 59.9923
42.8100 68.2592
42.8200 58.9036
42.8300 61.7699
42.8400 58.7101
42.8500 58.1862
42.8600 55.2877
42.8700 59.7132
42.8800 74.4018
42.8900 65.7168
42.9000 46.7090
42.9100 76.2500
42.9200 54.1108
42.9300 68.2614
42.9400 78.8048
42.9500 58.8972
42.9600 68.0806
42.9700 72.0721
42.9800 57.1013
42.9900 58.4788
43.0000 58.0229
43.0100 68.3095
43.0200 59.4437
43.0300 63.8761
43.0400 63.1700
43.0500 54.2479
43.0600 60.2892
43.0700 68.9895
43.0800 74.6600
43.0900 64.5352
43.1000 71.0665
43.1100 67.3061
43.1200 57.5753
43.1300 71.4030
43.1400 57.0860
43.1500 76.9214
43.1600 66.6352
43.1700 55.0238
43.1800 62.4667
43.1900 74.0759
43.2000 54.1610
43.2100 66.9756
43.2200 70.4868
43.2300 78.3375
43.2400 65.8012
43.2500 55.8981
43.2600 77.2971
43.2700 71.9070
43.2800 57.7213
43.2900 86.8732
43.3000 67.9485
43.3100 78.7421
43.3200 68.8845
43.3300 67.5722
43.3400 58.8824
43.3500 48.5938
43.3600 71.7341
43.3700 69.9957
43.3800 61.4138
43.3900 75.1109
43.4000 62.4029
43.4100 75.8221
43.4200 60.6970
43.4300 74.5400
43.4400 76.3107
43.4500 55.5611
43.4600 54.4163
43.4700 55.9532
43.4800 60.5768
43.4900 69.7192
43.5000 73.2128
43.5100 72.3778
43.5200 63.1165
43.5300 49.4018
43.5400 81.8378
43.5500 72.8245
43.5600 70.5754
43.5700 57.4539
43.5800 67.6349
43.5900 64.8900
43.6000 63.7647
43.6100 65.3288
43.6200 79.7517
43.6300 62.0947
43.6400 68.1224
43.6500 68.5879
43.6600 79.0556
43.6700 71.5519
43.6800 64.7819
43.6900 73.0484
43.7000 64.5148
43.7100 78.6110
43.7200 79.3133
43.7300 58.6525
43.7400 53.7875
43.7500 63.5704
43.7600 59.8516
43.7700 61.9566
43.7800 78.5669
43.7900 85.6481
43.8000 66.8847
43.8100 72.2329
43.8200 62.8447
43.8300 66.4703
43.8400 69.8102
43.8500 62.9546
43.8600 86.8733
43.8700 70.7697
43.8800 72.5019
43.8900 64.1919
43.9000 84.1941
43.9100 71.2843
43.9200 69.1350
43.9300 62.5473
43.9400 76.0800
43.9500 69.2871
43.9600 78.1493
43.9700 74.5392
43.9800 67.1959
43.9900 73.7251
44.0000 66.6282
44.0100 56.7225
44.0200 57.7568
44.0300 54.3853
44.0400 54.6003
44.0500 75.6487
44.0600 67.7861
44.0700 59.0536
44.0800 61.2826
44.0900 66.3453
44.1000 64.0656
44.1100 75.5145
44.1200 80.6181
44.1300 61.1752
44.1400 74.1571
44.1500 80.4765
44.1600 75.6737
44.1700 65.8964
44.1800 57.4002
44.1900 74.5842
44.2000 59.3362
44.2100 83.8729
44.2200 75.7684
44.2300 77.5611
44.2400 75.6560
44.2500 64.8283
44.2600 59.1656
44.2700 67.6389
44.2800 65.9305
44.2900 67.1596
44.3000 63.9836
44.3100 76.1197
44.3200 84.7675
44.3300 79.6397
44.3400 70.3739
44.3500 77.3517
44.3600 79.4142
44.3700 72.0267
44.3800 76.3922
44.3900 67.8037
44.4000 68.3971
44.4100 75.3325
44.4200 62.0929
44.4300 67.1935
44.4400 47.5186
44.4500 75.8648
44.4600 76.3995
44.4700 62.8822
44.4800 67.4564
44.4900 63.1619
44.5000 66.1527
44.5100 58.3432
44.5200 66.7744
44.5300 83.3775
44.5400 87.8011
44.5500 79.7870
44.5600 74.3949
44.5700 62.8102
44.5800 69.8435
44.5900 76.3032
44.6000 74.2019
44.6100 60.3196
44.6200 75.5890
44.6300 61.9702
44.6400 61.3836
44.6500 60.3967
44.6600 70.9585
44.6700 76.3997
44.6800 61.4484
44.6900 51.0323
44.7000 77.1862
44.7100 77.0738
44.7200 73.8911
44.7300 68.7779
44.7400 73.6541
44.7500 73.7997
44.7600 69.2128
44.7700 59.8789
44.7800 68.7501
44.7900 65.3308
44.8000 75.0448
44.8100 71.2128
44.8200 60.5708
44.8300 60.5464
44.8400 78.7376
44.8500 69.2553
44.8600 75.7271
44.8700 69.9776
44.8800 59.3679
44.8900 85.0999
44.9000 68.6367
44.9100 63.5248
44.9200 59.1253
44.9300 72.8036
44.9400 68.1261
44.9500 58.9416
44.9600 67.3073
44.9700 74.2847
44.9800 75.0259
44.9900 69.6687
45.0000 76.7894
45.0100 56.3286
45.0200 66.3568
45.0300 66.5067
45.0400 69.1112
45.0500 56.1468
45.0600 54.9601
45.0700 63.6177
45.0800 72.5864
45.0900 76.0456
45.1000 69.8539
45.1100 74.7760
45.1200 66.3321
45.1300 62.0609
45.1400 74.4248
45.1500 66.7985
45.1600 73.5662
45.1700 72.0949
45.1800 74.4581
45.1900 76.6820
45.2000 67.6131
45.2100 58.2460
45.2200 73.8851
45.2300 79.7037
45.2400 66.7378
45.2500 56.0140
45.2600 64.3407
45.2700 57.2271
45.2800 74.0239
45.2900 71.5975
45.3000 73.2622
45.3100 74.7950
45.3200 78.6476
45.3300 64.8881
45.3400 71.0818
45.3500 67.6700
45.3600 75.5059
45.3700 65.6209
45.3800 64.2312
45.3900 68.7915
45.4000 54.2598
45.4100 64.7905
45.4200 70.7937
45.4300 64.0005
45.4400 57.0937
45.4500 51.9185
45.4600 60.2945
45.4700 70.7791
45.4800 79.3094
45.4900 65.3245
45.5000 62.3335
45.5100 76.7352
45.5200 67.8857
45.5300 71.8549
45.5400 68.6676
45.5500 71.2713
45.5600 66.4249
45.5700 60.4816
45.5800 65.8349
45.5900 58.3083
45.6000 61.8221
45.6100 52.9600
45.6200 64.0686
45.6300 60.6706
45.6400 59.7247
45.6500 72.3932
45.6600 73.0419
45.6700 68.3344
45.6800 76.9110
45.6900 61.6306
45.7000 62.1384
45.7100 65.7174
45.7200 71.1712
45.7300 72.7916
45.7400 63.9945
45.7500 64.5324
45.7600 53.4245
45.7700 64.4504
45.7800 56.9002
45.7900 56.4799
45.8000 55.0440
45.8100 60.6680
45.8200 60.6373
45.8300 65.0020
45.8400 70.1881
45.8500 65.3761
45.8600 71.2721
45.8700 59.8623
45.8800 47.2210
45.8900 57.6869
45.9000 63.8753
45.9100 47.1647
45.9200 53.7240
45.9300 53.3627
45.9400 56.9993
45.9500 57.6620
45.9600 71.8679
45.9700 55.9386
45.9800 62.5644
45.9900 67.8685
46.0000 58.1713
46.0100 57.7808
46.0200 54.6787
46.0300 51.8531
46.0400 61.5996
46.0500 57.8652
46.0600 71.3156
46.0700 69.3615
46.0800 66.8248
46.0900 58.3400
46.1000 57.7867
46.1100 49.7253
46.1200 72.3883
46.1300 72.5460
46.1400 59.0827
46.1500 53.2556
46.1600 48.6545
46.1700 75.3511
46.1800 66.4464
46.1900 46.2218
46.2000 56.6666
46.2100 72.6917
46.2200 53.8758
46.2300 45.0159
46.2400 60.3768
46.2500 55.8897
46.2600 55.3178
46.2700 56.1971
46.2800 56.9306
46.2900 48.1576
46.3000 69.5838
46.3100 53.3092
46.3200 58.5107
46.3300 69.9690
46.3400 55.1774
46.3500 55.2806
46.3600 65.4371
46.3700 56.6214
46.3800 62.3638
46.3900 56.9557
46.4000 70.0519
46.4100 53.8479
46.4200 48.9764
46.4300 52.3160
46.4400 59.8872
46.4500 55.9059
46.4600 53.6282
46.4700 55.3878
46.4800 46.9883
46.4900 45.3255
46.5000 60.2983
46.5100 57.5996
46.5200 49.9183
46.5300 54.1318
46.5400 60.9097
46.5500 53.4742
46.5600 70.9240
46.5700 59.3032
46.5800 54.7275
46.5900 57.7828
46.6000 54.3870
46.6100 63.8933
46.6200 61.4618
46.6300 60.0827
46.6400 50.3128
46.6500 52.6834
46.6600 56.9679
46.6700 62.7207
46.6800 58.7047
46.6900 61.0666
46.7000 64.0027
46.7100 52.0170
46.7200 53.8670
46.7300 58.4785
46.7400 58.1594
46.7500 55.8897
46.7600 54.1001
46.7700 48.8956
46.7800 53.3360
46.7900 39.7616
46.8000 46.7382
46.8100 57.3444
46.8200 53.0382
46.8300 56.9402
46.8400 61.4124
46.8500 53.1387
46.8600 51.9041
46.8700 61.7185
46.8800 59.9851
46.8900 58.5921
46.9000 52.4252
46.9100 51.4810
46.9200 50.4333
46.9300 51.6990
46.9400 51.1552
46.9500 47.8275
46.9600 47.2912
46.9700 37.7642
46.9800 45.5284
46.9900 48.5603
47.0000 48.4182
47.0100 56.2890
47.0200 52.3332
47.0300 56.5357
47.0400 44.7151
47.0500 50.2014
47.0600 63.1284
47.0700 55.6430
47.0800 51.4485
47.0900 48.3903
47.1000 50.4061
47.1100 47.8580
47.1200 63.8277
47.1300 50.3084
47.1400 47.3888
47.1500 40.7056
47.1600 46.0144
47.1700 56.4330
47.1800 51.9533
47.1900 69.0276
47.2000 54.1219
47.2100 57.5804
47.2200 49.8983
47.2300 52.2373
47.2400 51.8087
47.2500 45.7613
47.2600 48.2692
47.2700 53.9396
47.2800 34.3717
47.2900 50.6428
47.3000 47.4310
47.3100 45.4135
47.3200 52.2372
47.3300 48.5405
47.3400 47.7895
47.3500 49.2164
47.3600 50.5006
47.3700 53.0281
47.3800 58.1107
47.3900 40.8544
47.4000 49.7011
47.4100 55.0723
47.4200 58.2960
47.4300 46.5290
47.4400 58.7146
47.4500 44.5604
47.4600 52.8087
47.4700 50.9931
47.4800 46.9964
47.4900 39.6400
47.5000 39.6008
47.5100 50.6069
47.5200 55.0806
47.5300 58.3548
47.5400 43.8398
47.5500 57.2782
47.5600 61.2868
47.5700 47.6469
47.5800 39.5536
47.5900 45.4467
47.6000 49.8115
47.6100 55.7301
47.6200 53.1016
47.6300 46.5842
47.6400 56.7277
47.6500 48.0876
47.6600 49.5487
47.6700 37.7301
47.6800 59.9010
47.6900 40.6836
47.7000 47.9048
47.7100 38.0295
47.7200 50.1302
47.7300 45.9381
47.7400 54.0281
47.7500 52.1995
47.7600 47.0560
47.7700 45.7785
47.7800 60.9796
47.7900 53.4098
47.8000 51.5369
47.8100 53.9254
47.8200 43.7129
47.8300 46.6441
47.8400 50.0965
47.8500 62.3249
47.8600 51.6379
47.8700 32.8869
47.8800 45.2207
47.8900 44.0612
47.9000 48.4866
47.9100 41.5032
47.9200 55.8144
47.9300 50.0744
47.9400 71.4422
47.9500 47.7162
47.9600 46.4217
47.9700 47.0440
47.9800 48.5511
47.9900 54.0146
48.0000 44.5972
48.0100 39.8368
48.0200 55.4240
48.0300 56.6116
48.0400 45.0313
48.0500 55.6541
48.0600 41.0150
48.0700 49.7140
48.0800 43.5872
48.0900 43.6030
48.1000 55.0186
48.1100 39.2615
48.1200 47.1490
48.1300 37.3206
48.1400 49.1452
48.1500 47.8497
48.1600 46.0485
48.1700 54.5088
48.1800 48.7176
48.1900 54.0724
48.2000 39.1196
48.2100 52.1282
48.2200 55.9132
48.2300 34.8916
48.2400 45.6191
48.2500 54.9218
48.2600 49.2854
48.2700 60.5404
48.2800 44.8132
48.2900 63.0810
48.3000 44.3671
48.3100 49.6349
48.3200 45.3665
48.3300 43.9556
48.3400 41.1458
48.3500 46.4467
48.3600 49.0031
48.3700 60.1957
48.3800 45.2462
48.3900 44.4598
48.4000 44.0781
48.4100 45.7964
48.4200 50.7150
48.4300 48.1153
48.4400 44.2937
48.4500 47.6420
48.4600 55.6732
48.4700 43.7559
48.4800 54.0591
48.4900 44.6064
48.5000 53.2315
48.5100 45.8657
48.5200 52.0730
48.5300 48.4418
48.5400 59.4219
48.5500 56.2516
48.5600 44.9823
48.5700 46.3015
48.5800 36.0567
48.5900 45.1919
48.6000 53.4278
48.6100 49.0729
48.6200 43.3554
48.6300 52.6685
48.6400 48.5863
48.6500 50.7012
48.6600 43.1502
48.6700 54.4158
48.6800 45.3199
48.6900 41.4133
48.7000 39.1801
48.7100 47.8299
48.7200 52.9799
48.7300 56.2895
48.7400 39.4288
48.7500 41.5340
48.7600 36.7599
48.7700 55.5997
48.7800 53.1205
48.7900 48.0872
48.8000 51.4970
48.8100 54.2291
48.8200 49.0284
48.8300 55.2627
48.8400 43.3014
48.8500 49.4940
48.8600 67.7386
48.8700 55.5484
48.8800 37.6780
48.8900 45.3430
48.9000 52.0765
48.9100 44.3663
48.9200 45.4580
48.9300 50.1678
48.9400 48.4948
48.9500 43.7918
48.9600 56.2803
48.9700 58.9310
48.9800 48.1570
48.9900 54.2121
49.0000 44.3369
49.0100 49.4075
49.0200 49.7487
49.0300 43.6042
49.0400 44.1663
49.0500 44.0840
49.0600 43.6089
49.0700 40.8989
49.0800 50.8873
49.0900 60.9131
49.1000 54.1186
49.1100 38.2727
49.1200 53.8957
49.1300 55.8626
49.1400 43.6606
49.1500 42.0257
49.1600 56.1332
49.1700 59.4054
49.1800 55.5411
49.1900 43.0457
49.2000 47.7507
49.2100 44.7632
49.2200 43.4200
49.2300 44.3494
49.2400 49.9198
49.2500 32.7686
49.2600 55.4528
49.2700 46.1530
49.2800 35.1807
49.2900 43.1759
49.3000 41.2580
49.3100 43.4993
49.3200 53.8911
49.3300 49.0772
49.3400 49.1437
49.3500 47.3744
49.3600 38.9035
49.3700 46.8577
49.3800 42.5543
49.3900 42.5593
49.4000 40.1576
49.4100 52.4950
49.4200 54.9695
49.4300 55.2201
49.4400 48.9402
49.4500 43.8471
49.4600 54.4073
49.4700 36.2532
49.4800 47.6786
49.4900 52.7651
49.5000 47.4033
49.5100 41.4155
49.5200 47.4189
49.5300 58.6520
49.5400 52.8835
49.5500 50.5586
49.5600 45.7866
49.5700 39.3428
49.5800 47.9440
49.5900 43.8274
49.6000 55.8849
49.6100 41.9409
49.6200 47.1306
49.6300 51.1483
49.6400 36.0370
49.6500 45.1735
49.6600 63.4382
49.6700 41.6773
49.6800 34.2132
49.6900 51.6004
49.7000 50.0217
49.7100 43.0099
49.7200 42.8680
49.7300 49.2227
49.7400 40.4553
49.7500 44.5588
49.7600 47.5543
49.7700 43.9853
49.7800 48.8229
49.7900 47.1306
49.8000 50.2125
49.8100 29.7404
49.8200 45.2187
49.8300 49.5857
49.8400 51.0347
49.8500 51.5185
49.8600 50.0334
49.8700 51.0525
49.8800 46.2899
49.8900 42.2274
49.9000 53.2494
49.9100 50.8653
49.9200 52.3457
49.9300 50.9594
49.9400 48.1169
49.9500 51.1049
49.9600 40.1303
49.9700 42.4645
49.9800 38.3179
49.9900 48.2832
50.0000 38.5319
50.0100 65.6468
50.0200 48.1804
50.0300 59.8002
50.0400 51.4579
50.0500 48.5962
50.0600 48.9099
50.0700 52.6063
50.0800 48.9749
50.0900 46.3526
50.1000 44.8013
50.1100 40.5277
50.1200 46.7970
50.1300 56.8882
50.1400 53.0877
50.1500 54.0243
50.1600 46.0978
50.1700 48.7123
50.1800 33.3385
50.1900 53.5830
50.2000 60.1215
50.2100 39.6919
50.2200 48.3341
50.2300 53.3188
50.2400 45.2077
50.2500 44.1237
50.2600 52.6042
50.2700 49.1673
50.2800 47.3368
50.2900 42.9114
50.3000 52.0616
50.3100 56.8181
50.3200 56.8474
50.3300 45.8450
50.3400 57.0450
50.3500 55.9341
50.3600 54.7284
50.3700 44.2352
50.3800 48.9443
50.3900 44.9282
50.4000 38.9385
50.4100 50.8256
50.4200 46.0634
50.4300 42.8349
50.4400 45.9517
50.4500 50.8510
50.4600 49.4542
50.4700 49.9773
50.4800 39.9852
50.4900 37.9174
50.5000 56.3440
50.5100 57.5187
50.5200 44.5919
50.5300 48.0333
50.5400 48.0219
50.5500 57.0432
50.5600 36.1770
50.5700 40.8097
50.5800 44.4635
50.5900 42.4818
50.6000 43.6597
50.6100 49.1690
50.6200 59.1260
50.6300 50.6365
50.6400 54.5949
50.6500 52.0175
50.6600 48.6252
50.6700 48.0370
50.6800 58.8457
50.6900 53.6872
50.7000 46.0494
50.7100 40.6968
50.7200 51.6925
50.7300 43.9657
50.7400 55.1523
50.7500 44.0336
50.7600 30.3593
50.7700 37.6177
50.7800 48.8399
50.7900 39.2954
50.8000 40.2714
50.8100 66.3773
50.8200 58.7407
50.8300 46.1660
50.8400 54.2670
50.8500 41.1931
50.8600 45.9203
50.8700 52.4843
50.8800 46.1804
50.8900 34.2618
50.9000 49.1070
50.9100 48.2310
50.9200 46.2513
50.9300 58.2994
50.9400 56.1567
50.9500 49.3372
50.9600 46.0999
50.9700 53.0730
50.9800 48.9431
50.9900 53.8279
51.0000 48.1111
51.0100 43.8163
51.0200 46.5725
51.0300 40.3354
51.0400 58.9974
51.0500 52.5366
51.0600 36.5268
51.0700 50.4598
51.0800 52.7222
51.0900 37.6181
51.1000 42.0479
51.1100 40.4062
51.1200 52.4385
51.1300 49.6162
51.1400 39.0295
51.1500 47.6391
51.1600 34.9603
51.1700 43.4307
51.1800 47.9396
51.1900 53.2502
51.2000 38.8831
51.2100 45.2030
51.2200 47.0926
51.2300 59.2275
51.2400 43.4338
51.2500 44.0304
51.2600 64.2337
51.2700 52.2129
51.2800 62.8087
51.2900 41.7426
51.3000 57.2209
51.3100 47.1318
51.3200 49.3375
51.3300 42.7898
51.3400 40.7441
51.3500 43.3616
51.3600 50.9254
51.3700 52.4871
51.3800 43.9784
51.3900 39.4669
51.4000 46.7894
51.4100 36.5367
51.4200 37.9095
51.4300 41.3043
51.4400 58.6621
51.4500 43.2542
51.4600 44.2568
51.4700 50.9296
51.4800 46.0633
51.4900 49.5164
51.5000 43.1527
51.5100 48.2944
51.5200 49.4572
51.5300 49.2626
51.5400 46.3249
51.5500 53.6026
51.5600 47.1750
51.5700 58.0451
51.5800 46.8894
51.5900 52.5349
51.6000 49.1578
51.6100 52.3911
51.6200 57.9130
51.6300 37.8537
51.6400 34.2027
51.6500 45.8560
51.6600 54.6928
51.6700 35.6213
51.6800 49.4339
51.6900 48.1319
51.7000 55.1284
51.7100 47.7430
51.7200 59.4253
51.7300 51.9994
51.7400 64.2318
51.7500 49.5356
51.7600 52.4854
51.7700 58.8278
51.7800 46.9722
51.7900 45.7952
51.8000 47.7800
51.8100 49.1049
51.8200 42.4739
51.8300 47.3966
51.8400 49.4854
51.8500 51.3576
51.8600 47.5386
51.8700 44.5780
51.8800 37.7125
51.8900 51.1493
51.9000 38.8900
51.9100 50.1261
51.9200 41.8845
51.9300 48.2930
51.9400 50.5566
51.9500 49.6652
51.9600 52.8767
51.9700 63.3530
51.9800 40.8627
51.9900 46.7743
52.0000 42.3261
52.0100 42.9773
52.0200 42.1248
52.0300 49.5201
52.0400 47.2673
52.0500 54.1140
52.0600 49.9715
52.0700 53.1753
52.0800 43.4252
52.0900 36.6387
52.1000 41.7879
52.1100 47.6323
52.1200 48.2038
52.1300 47.5260
52.1400 57.8130
52.1500 66.8947
52.1600 53.4703
52.1700 51.3399
52.1800 41.7314
52.1900 39.2957
52.2000 39.4056
52.2100 48.4588
52.2200 48.1238
52.2300 49.3991
52.2400 52.5305
52.2500 59.9586
52.2600 47.8832
52.2700 37.8525
52.2800 40.7730
52.2900 44.6259
52.3000 49.8210
52.3100 56.8616
52.3200 48.6282
52.3300 46.9915
52.3400 48.4279
52.3500 46.4198
52.3600 42.1180
52.3700 39.6050
52.3800 43.6278
52.3900 50.2323
52.4000 48.8015
52.4100 43.9243
52.4200 43.8373
52.4300 45.1078
52.4400 44.1750
52.4500 52.0703
52.4600 50.3906
52.4700 34.0696
52.4800 45.3699
52.4900 46.3095
52.5000 48.2168
52.5100 49.3052
52.5200 42.6622
52.5300 42.6522
52.5400 44.7303
52.5500 55.1255
52.5600 59.0656
52.5700 34.9136
52.5800 42.2840
52.5900 56.1654
52.6000 53.4473
52.6100 41.3669
52.6200 53.8483
52.6300 47.4916
52.6400 47.6800
52.6500 44.0711
52.6600 46.5901
52.6700 54.3881
52.6800 54.8682
52.6900 53.9311
52.7000 59.7969
52.7100 46.4475
52.7200 55.8912
52.7300 47.4462
52.7400 46.3294
52.7500 52.7744
52.7600 52.2837
52.7700 36.2420
52.7800 47.6880
52.7900 44.9587
52.8000 59.5019
52.8100 49.3682
52.8200 48.1242
52.8300 46.1148
52.8400 47.8413
52.8500 45.2630
52.8600 60.0509
52.8700 46.9550
52.8800 46.1066
52.8900 36.0964
52.9000 48.8908
52.9100 46.6235
52.9200 49.8388
52.9300 54.3497
52.9400 41.7997
52.9500 49.0683
52.9600 46.4150
52.9700 34.2509
52.9800 67.2851
52.9900 56.2230
53.0000 51.9730
53.0100 47.0048
53.0200 59.7133
53.0300 57.7363
53.0400 48.7793
53.0500 40.1498
53.0600 40.6405
53.0700 46.8850
53.0800 53.2903
53.0900 42.7224
53.1000 46.0666
53.1100 47.0091
53.1200 57.8438
53.1300 48.7016
53.1400 47.5544
53.1500 38.0598
53.1600 47.1298
53.1700 51.6280
53.1800 70.6891
53.1900 43.3272
53.2000 56.6056
53.2100 46.4934
53.2200 45.9049
53.2300 51.3539
53.2400 50.5427
53.2500 39.7591
53.2600 45.4166
53.2700 42.7511
53.2800 49.6810
53.2900 45.4507
53.3000 40.6281
53.3100 51.0675
53.3200 41.5863
53.3300 44.3656
53.3400 41.1835
53.3500 54.3811
53.3600 47.3870
53.3700 50.9020
53.3800 37.8655
53.3900 41.4602
53.4000 37.9597
53.4100 41.8542
53.4200 58.5577
53.4300 50.9095
53.4400 47.0075
53.4500 49.9005
53.4600 45.0140
53.4700 48.9917
53.4800 50.9069
53.4900 42.3219
53.5000 48.3514
53.5100 47.0217
53.5200 35.0465
53.5300 50.7387
53.5400 47.5552
53.5500 39.7186
53.5600 49.8080
53.5700 52.4145
53.5800 46.6499
53.5900 45.4442
53.6000 46.0414
53.6100 35.8900
53.6200 44.6230
53.6300 46.4797
53.6400 51.7967
53.6500 44.1019
53.6600 49.4431
53.6700 44.0182
53.6800 52.2627
53.6900 37.4285
53.7000 49.4936
53.7100 46.3538
53.7200 51.8090
53.7300 50.0876
53.7400 51.2381
53.7500 44.8635
53.7600 47.2580
53.7700 49.5806
53.7800 57.5617
53.7900 44.5810
53.8000 48.4557
53.8100 48.9468
53.8200 53.8511
53.8300 37.9428
53.8400 33.0000
53.8500 52.1665
53.8600 45.5351
53.8700 51.4217
53.8800 45.2892
53.8900 42.2474
53.9000 54.3032
53.9100 49.7450
53.9200 46.2862
53.9300 47.7756
53.9400 47.9285
53.9500 48.8168
53.9600 30.9260
53.9700 53.7538
53.9800 53.7580
53.9900 45.3292
54.0000 44.3274
54.0100 55.9761
54.0200 44.0592
54.0300 47.8240
54.0400 42.7729
54.0500 49.1348
54.0600 40.7247
54.0700 51.5918
54.0800 52.5028
54.0900 48.7581
54.1000 46.1432
54.1100 48.4436
54.1200 37.7696
54.1300 53.2387
54.1400 63.3737
54.1500 54.0850
54.1600 45.6676
54.1700 40.0059
54.1800 38.9890
54.1900 48.9440
54.2000 41.1612
54.2100 56.0243
54.2200 48.1572
54.2300 61.1045
54.2400 43.0488
54.2500 45.8187
54.2600 51.7999
54.2700 48.8463
54.2800 42.6786
54.2900 51.9282
54.3000 49.0075
54.3100 46.5948
54.3200 46.6032
54.3300 48.5335
54.3400 51.4160
54.3500 52.7606
54.3600 47.9324
54.3700 39.0188
54.3800 36.4822
54.3900 52.8982
54.4000 48.7048
54.4100 48.6798
54.4200 58.1441
54.4300 46.7835
54.4400 42.1273
54.4500 30.4453
54.4600 48.7012
54.4700 54.3710
54.4800 32.4913
54.4900 42.1363
54.5000 42.9394
54.5100 43.5924
54.5200 41.5375
54.5300 40.3403
54.5400 52.2079
54.5500 48.3464
54.5600 45.1082
54.5700 31.2239
54.5800 49.8023
54.5900 45.6704
54.6000 50.4905
54.6100 60.0993
54.6200 46.2064
54.6300 49.6533
54.6400 48.6424
54.6500 41.6051
54.6600 48.0996
54.6700 45.3694
54.6800 37.4234
54.6900 41.0767
54.7000 36.5824
54.7100 49.8043
54.7200 52.0137
54.7300 49.5611
54.7400 45.1856
54.7500 36.1714
54.7600 57.3788
54.7700 53.0438
54.7800 45.5921
54.7900 41.6899
54.8000 54.9682
54.8100 54.7458
54.8200 51.1493
54.8300 52.9615
54.8400 49.3788
54.8500 50.9801
54.8600 46.6970
54.8700 51.5280
54.8800 39.4090
54.8900 45.5556
54.9000 49.9471
54.9100 48.9799
54.9200 48.8896
54.9300 39.6208
54.9400 37.1290
54.9500 46.0844
54.9600 44.5654
54.9700 48.3615
54.9800 49.7213
54.9900 45.9210
55.0000 37.7497
55.0100 45.7227
55.0200 55.9850
55.0300 53.3343
55.0400 44.5087
55.0500 43.7114
55.0600 43.2417
55.0700 44.0059
55.0800 51.0125
55.0900 52.9563
55.1000 53.4942
55.1100 41.9813
55.1200 37.7803
55.1300 46.2566
55.1400 46.9256
55.1500 51.1145
55.1600 43.5974
55.1700 54.7411
55.1800 60.6397
55.1900 51.6055
55.2000 56.9679
55.2100 37.9320
55.2200 39.0819
55.2300 39.8061
55.2400 46.7195
55.2500 43.5743
55.2600 52.9305
55.2700 43.7189
55.2800 52.5160
55.2900 36.1149
55.3000 44.2702
55.3100 55.6273
55.3200 35.8815
55.3300 48.7397
55.3400 43.9908
55.3500 53.8411
55.3600 49.5166
55.3700 45.6110
55.3800 56.2633
55.3900 52.6490
55.4000 47.7228
55.4100 41.1594
55.4200 35.6254
55.4300 50.4824
55.4400 53.8712
55.4500 48.8071
55.4600 47.5838
55.4700 47.3218
55.4800 52.8506
55.4900 52.2604
55.5000 52.1320
55.5100 39.9358
55.5200 45.7237
55.5300 45.5470
55.5400 44.6160
55.5500 43.8279
55.5600 50.2006
55.5700 58.5850
55.5800 50.7880
55.5900 54.7302
55.6000 52.7074
55.6100 46.1969
55.6200 55.4069
55.6300 46.2649
55.6400 41.8919
55.6500 44.1675
55.6600 41.0749
55.6700 57.1182
55.6800 40.9371
55.6900 42.2557
55.7000 54.4032
55.7100 46.7666
55.7200 53.9209
55.7300 51.2234
55.7400 50.6312
55.7500 40.1718
55.7600 40.4117
55.7700 43.9155
55.7800 35.4704
55.7900 42.1864
55.8000 48.1876
55.8100 48.6257
55.8200 39.1799
55.8300 53.8450
55.8400 50.0115
55.8500 41.1511
55.8600 45.6608
55.8700 43.8486
55.8800 48.5782
55.8900 48.3909
55.9000 55.3720
55.9100 57.9235
55.9200 44.9418
55.9300 43.0906
55.9400 58.6781
55.9500 45.6430
55.9600 43.8508
55.9700 37.8883
55.9800 43.4818
55.9900 73.6289
56.0000 55.4538
56.0100 54.9085
56.0200 47.8172
56.0300 38.9352
56.0400 38.5239
56.0500 45.7240
56.0600 51.5136
56.0700 53.3843
56.0800 45.7289
56.0900 53.0205
56.1000 49.5396
56.1100 46.0249
56.1200 40.5755
56.1300 47.8039
56.1400 47.3238
56.1500 39.2992
56.1600 53.3153
56.1700 44.7404
56.1800 60.3725
56.1900 41.3266
56.2000 60.1841
56.2100 44.5852
56.2200 56.3123
56.2300 48.1252
56.2400 50.7079
56.2500 44.8834
56.2600 47.3488
56.2700 56.2981
56.2800 48.3534
56.2900 52.6173
56.3000 43.7694
56.3100 50.4886
56.3200 48.6832
56.3300 52.7163
56.3400 60.0752
56.3500 45.2410
56.3600 43.4332
56.3700 43.9592
56.3800 57.5770
56.3900 48.9651
56.4000 41.3355
56.4100 43.2175
56.4200 53.7234
56.4300 40.7379
56.4400 29.1631
56.4500 45.1717
56.4600 43.2609
56.4700 64.6409
56.4800 44.4763
56.4900 40.8981
56.5000 54.3816
56.5100 46.6357
56.5200 51.2712
56.5300 50.3091
56.5400 62.7325
56.5500 49.7065
56.5600 56.6554
56.5700 47.3897
56.5800 43.5845
56.5900 46.9773
56.6000 46.5054
56.6100 44.8004
56.6200 50.6128
56.6300 43.1073
56.6400 39.2772
56.6500 56.2099
56.6600 47.4797
56.6700 56.7984
56.6800 56.4797
56.6900 48.0244
56.7000 47.6317
56.7100 46.1631
56.7200 43.1325
56.7300 45.9274
56.7400 55.5190
56.7500 44.3859
56.7600 52.3518
56.7700 45.0386
56.7800 39.8397
56.7900 50.1531
56.8000 46.9587
56.8100 42.0545
56.8200 53.7729
56.8300 42.7269
56.8400 32.3912
56.8500 44.8180
56.8600 49.8510
56.8700 48.7683
56.8800 45.4163
56.8900 49.6654
56.9000 45.1412
56.9100 51.8588
56.9200 43.8857
56.9300 53.6034
56.9400 48.0288
56.9500 42.7439
56.9600 44.6736
56.9700 39.0024
56.9800 33.1907
56.9900 47.4875
57.0000 48.3650
57.0100 45.1625
57.0200 59.1462
57.0300 46.9681
57.0400 42.6563
57.0500 43.8053
57.0600 55.7453
57.0700 45.9007
57.0800 47.3036
57.0900 62.5772
57.1000 49.4276
57.1100 54.8018
57.1200 54.4815
57.1300 51.1894
57.1400 36.1434
57.1500 40.9227
57.1600 41.7612
57.1700 45.1922
57.1800 44.4940
57.1900 55.5444
57.2000 31.1304
57.2100 34.6952
57.2200 51.2993
57.2300 51.5063
57.2400 53.4181
57.2500 37.3755
57.2600 37.2113
57.2700 48.1673
57.2800 54.3966
57.2900 42.6652
57.3000 35.1066
57.3100 43.3278
57.3200 53.7055
57.3300 47.2448
57.3400 41.6796
57.3500 45.5482
57.3600 31.7653
57.3700 39.7885
57.3800 39.9619
57.3900 49.1441
57.4000 41.6041
57.4100 38.5580
57.4200 41.8200
57.4300 50.5525
57.4400 47.3498
57.4500 63.4404
57.4600 42.8853
57.4700 46.4847
57.4800 38.0463
57.4900 42.3443
57.5000 46.6833
57.5100 47.4372
57.5200 56.7829
57.5300 45.8273
57.5400 42.6692
57.5500 50.9101
57.5600 49.7710
57.5700 34.9464
57.5800 47.2180
57.5900 49.2450
57.6000 46.1284
57.6100 53.0280
57.6200 43.4849
57.6300 45.5657
57.6400 42.7806
57.6500 45.8094
57.6600 44.0147
57.6700 52.0091
57.6800 50.0500
57.6900 38.0434
57.7000 48.8354
57.7100 43.3885
57.7200 46.5008
57.7300 38.0895
57.7400 37.7550
57.7500 56.7209
57.7600 35.7463
57.7700 53.7519
57.7800 56.9073
57.7900 41.3392
57.8000 50.9028
57.8100 50.6535
57.8200 42.3164
57.8300 52.2327
57.8400 42.7406
57.8500 47.5852
57.8600 44.5047
57.8700 50.7175
57.8800 40.9083
57.8900 46.1649
57.9000 43.8035
57.9100 43.9308
57.9200 44.7117
57.9300 52.4811
57.9400 43.0976
57.9500 46.9437
57.9600 48.4345
57.9700 54.7014
57.9800 43.6093
57.9900 48.8156
58.0000 47.5696
58.0100 52.2108
58.0200 57.1463
58.0300 47.4518
58.0400 45.2610
58.0500 60.7200
58.0600 53.3118
58.0700 53.5668
58.0800 43.1338
58.0900 42.7654
58.1000 45.1789
58.1100 45.0134
58.1200 41.9019
58.1300 46.9686
58.1400 41.9861
58.1500 39.9093
58.1600 51.4554
58.1700 41.9928
58.1800 51.9442
58.1900 43.6143
58.2000 35.6959
58.2100 47.6446
58.2200 49.4869
58.2300 48.0858
58.2400 46.9639
58.2500 42.9163
58.2600 45.1162
58.2700 38.7395
58.2800 43.2312
58.2900 51.9286
58.3000 36.8548
58.3100 46.2516
58.3200 48.2180
58.3300 54.0894
58.3400 55.8658
58.3500 46.7561
58.3600 45.5893
58.3700 51.2871
58.3800 43.5880
58.3900 43.5380
58.4000 38.9588
58.4100 38.3878
58.4200 55.8397
58.4300 54.2975
58.4400 54.1213
58.4500 44.8620
58.4600 50.8590
58.4700 48.1870
58.4800 49.2444
58.4900 46.2221
58.5000 54.7608
58.5100 43.6727
58.5200 55.0820
58.5300 53.9332
58.5400 49.0050
58.5500 56.0143
58.5600 66.4593
58.5700 52.3500
58.5800 51.3415
58.5900 47.4134
58.6000 53.6668
58.6100 52.2221
58.6200 52.4381
58.6300 46.9289
58.6400 57.0469
58.6500 48.1524
58.6600 51.2693
58.6700 48.3326
58.6800 42.6091
58.6900 45.4008
58.7000 45.2740
58.7100 41.1828
58.7200 33.4313
58.7300 43.7690
58.7400 46.6340
58.7500 52.1233
58.7600 50.9463
58.7700 50.9317
58.7800 38.7736
58.7900 44.2716
58.8000 57.0781
58.8100 44.5841
58.8200 39.6035
58.8300 41.0985
58.8400 35.7668
58.8500 52.9700
58.8600 47.1340
58.8700 56.4943
58.8800 47.5251
58.8900 48.7107
58.9000 51.8398
58.9100 37.7271
58.9200 51.7954
58.9300 50.8403
58.9400 39.9436
58.9500 45.7817
58.9600 48.4199
58.9700 58.6991
58.9800 51.5724
58.9900 46.7244
59.0000 42.9551
59.0100 47.0737
59.0200 39.6606
59.0300 45.4588
59.0400 57.9316
59.0500 51.8813
59.0600 59.4840
59.0700 48.2773
59.0800 38.1149
59.0900 44.9990
59.1000 46.8951
59.1100 47.7855
59.1200 47.3714
59.1300 51.0607
59.1400 44.7785
59.1500 36.9553
59.1600 36.6622
59.1700 51.9328
59.1800 52.6237
59.1900 59.8347
59.2000 60.6083
59.2100 44.9558
59.2200 61.4896
59.2300 38.3287
59.2400 52.8460
59.2500 47.9740
59.2600 48.6440
59.2700 55.2843
59.2800 46.4735
59.2900 52.9261
59.3000 33.3073
59.3100 40.8745
59.3200 42.1119
59.3300 59.4766
59.3400 57.7494
59.3500 44.1453
59.3600 42.1240
59.3700 47.9924
59.3800 55.2788
59.3900 53.0035
59.4000 50.8781
59.4100 48.2046
59.4200 45.9448
59.4300 47.3219
59.4400 39.6514
59.4500 41.6310
59.4600 44.2773
59.4700 45.0165
59.4800 52.3227
59.4900 42.7592
59.5000 42.8297
59.5100 43.8872
59.5200 53.4081
59.5300 58.0550
59.5400 49.1269
59.5500 43.4471
59.5600 58.4387
59.5700 48.2760
59.5800 44.3068
59.5900 46.8174
59.6000 47.0709
59.6100 49.4537
59.6200 41.4723
59.6300 45.0856
59.6400 54.3817
59.6500 40.1682
59.6600 42.2832
59.6700 59.9243
59.6800 38.1084
59.6900 37.9920
59.7000 43.3651
59.7100 55.2628
59.7200 56.6733
59.7300 46.3248
59.7400 41.3410
59.7500 50.0106
59.7600 52.4921
59.7700 43.7596
59.7800 45.6994
59.7900 44.0087
59.8000 41.8461
59.8100 56.0212
59.8200 52.2396
59.8300 48.1778
59.8400 41.4858
59.8500 51.6290
59.8600 60.7562
59.8700 56.6077
59.8800 44.3268
59.8900 40.2047
59.9000 56.5824
59.9100 54.3015
59.9200 45.9282
59.9300 42.9103
59.9400 33.2765
59.9500 49.7432
59.9600 56.9304
59.9700 50.8149
59.9800 44.7552
59.9900 53.5148
60.0000 52.1445
60.0100 54.7822
60.0200 43.5475
60.0300 58.2333
60.0400 46.8424
60.0500 44.6055
60.0600 46.3447
60.0700 44.5487
60.0800 50.6960
60.0900 43.7096
60.1000 53.1463
60.1100 51.4414
60.1200 48.7117
60.1300 40.3836
60.1400 40.4705
60.1500 36.8354
60.1600 52.2735
60.1700 47.1517
60.1800 45.5155
60.1900 49.9260
60.2000 54.9468
60.2100 40.8420
60.2200 46.5027
60.2300 50.6820
60.2400 46.0268
60.2500 48.4414
60.2600 51.1867
60.2700 49.2223
60.2800 59.5591
60.2900 44.6818
60.3000 68.2133
60.3100 69.9628
60.3200 42.5311
60.3300 46.0394
60.3400 42.8412
60.3500 53.6733
60.3600 48.2215
60.3700 43.0224
60.3800 49.2733
60.3900 51.1261
60.4000 43.9380
60.4100 44.8052
60.4200 48.0866
60.4300 40.9395
60.4400 46.1701
60.4500 48.1032
60.4600 39.5924
60.4700 49.5392
60.4800 51.3621
60.4900 52.3168
60.5000 51.5194
60.5100 62.8168
60.5200 59.2231
60.5300 47.8679
60.5400 53.4603
60.5500 42.4174
60.5600 46.2887
60.5700 40.6925
60.5800 35.6060
60.5900 47.7028
60.6000 45.1199
60.6100 37.8036
60.6200 46.8400
60.6300 65.6322
60.6400 46.2338
60.6500 43.4473
60.6600 57.5653
60.6700 50.9527
60.6800 51.6186
60.6900 55.4255
60.7000 46.2072
60.7100 43.5990
60.7200 38.1589
60.7300 53.1489
60.7400 48.5532
60.7500 55.1134
60.7600 53.1209
60.7700 38.0718
60.7800 48.5127
60.7900 48.9155
60.8000 42.4277
60.8100 52.4621
60.8200 38.2717
60.8300 54.1020
60.8400 52.6731
60.8500 49.7096
60.8600 54.5272
60.8700 46.2630
60.8800 43.0838
60.8900 45.1849
60.9000 39.1911
60.9100 47.2033
60.9200 47.7096
60.9300 49.2341
60.9400 42.1437
60.9500 39.7923
60.9600 45.2259
60.9700 52.3283
60.9800 44.9971
60.9900 42.3179
61.0000 57.6893
61.0100 39.8213
61.0200 52.5107
61.0300 43.8192
61.0400 51.3050
61.0500 44.4353
61.0600 51.3403
61.0700 48.4607
61.0800 49.4676
61.0900 44.9452
61.1000 52.2517
61.1100 52.9011
61.1200 50.4669
61.1300 56.7421
61.1400 59.2455
61.1500 57.9978
61.1600 46.6526
61.1700 69.4043
61.1800 50.7344
61.1900 47.0566
61.2000 40.3962
61.2100 44.4124
61.2200 50.1668
61.2300 34.5806
61.2400 44.8615
61.2500 49.9548
61.2600 55.0796
61.2700 47.5326
61.2800 45.8714
61.2900 53.1707
61.3000 56.7557
61.3100 53.0767
61.3200 39.3136
61.3300 41.8677
61.3400 54.3847
61.3500 52.0175
61.3600 49.5759
61.3700 60.0586
61.3800 46.0775
61.3900 43.9576
61.4000 52.1443
61.4100 49.4441
61.4200 40.7002
61.4300 50.7165
61.4400 32.7830
61.4500 47.6042
61.4600 52.0233
61.4700 49.8652
61.4800 47.8450
61.4900 56.3816
61.5000 44.3392
61.5100 50.2457
61.5200 59.1819
61.5300 42.1845
61.5400 50.3781
61.5500 53.2619
61.5600 44.7097
61.5700 55.5198
61.5800 46.7536
61.5900 43.0444
61.6000 50.3831
61.6100 34.5113
61.6200 59.0430
61.6300 56.9603
61.6400 44.8461
61.6500 61.4222
61.6600 45.8607
61.6700 42.2072
61.6800 49.7584
61.6900 51.8021
61.7000 54.0145
61.7100 46.6370
61.7200 46.8017
61.7300 54.4628
61.7400 47.5205
61.7500 55.8420
61.7600 47.9385
61.7700 40.4271
61.7800 44.1568
61.7900 52.6183
61.8000 40.0680
61.8100 44.1352
61.8200 48.5990
61.8300 45.8477
61.8400 39.0836
61.8500 42.1117
61.8600 51.3212
61.8700 56.9970
61.8800 51.3636
61.8900 44.3398
61.9000 55.2212
61.9100 37.8880
61.9200 48.0536
61.9300 57.3528
61.9400 51.2586
61.9500 40.2734
61.9600 37.3514
61.9700 43.7049
61.9800 58.3235
61.9900 33.4279
62.0000 52.8670
62.0100 49.4674
62.0200 46.1025
62.0300 52.5844
62.0400 59.9678
62.0500 47.0668
62.0600 51.5307
62.0700 45.4527
62.0800 41.9254
62.0900 46.7914
62.1000 59.4285
62.1100 48.3713
62.1200 37.4217
62.1300 46.1866
62.1400 37.6116
62.1500 48.0945
62.1600 47.7492
62.1700 45.3682
62.1800 45.0179
62.1900 53.9593
62.2000 33.3580
62.2100 56.5320
62.2200 53.0439
62.2300 53.8191
62.2400 51.3343
62.2500 38.4269
62.2600 46.1162
62.2700 30.9340
62.2800 39.5116
62.2900 55.4613
62.3000 54.0334
62.3100 48.3711
62.3200 44.8266
62.3300 48.1127
62.3400 38.7803
62.3500 58.0459
62.3600 64.5348
62.3700 45.2685
62.3800 46.9531
62.3900 44.6572
62.4000 49.1700
62.4100 56.7767
62.4200 47.6980
62.4300 51.1807
62.4400 39.7839
62.4500 52.4509
62.4600 42.8230
62.4700 54.4837
62.4800 52.1418
62.4900 50.2439
62.5000 44.5457
62.5100 55.9636
62.5200 46.1639
62.5300 41.1470
62.5400 54.8014
62.5500 47.9653
62.5600 57.3660
62.5700 45.7073
62.5800 55.1556
62.5900 45.5263
62.6000 63.6262
62.6100 68.0577
62.6200 47.8435
62.6300 41.6143
62.6400 62.5306
62.6500 49.5803
62.6600 49.0637
62.6700 56.4917
62.6800 54.8972
62.6900 46.5426
62.7000 46.9988
62.7100 48.4640
62.7200 46.9373
62.7300 45.4598
62.7400 47.8601
62.7500 56.3770
62.7600 54.0270
62.7700 68.6791
62.7800 44.9035
62.7900 37.6768
62.8000 40.8583
62.8100 42.0219
62.8200 43.8973
62.8300 48.5448
62.8400 51.7357
62.8500 45.4932
62.8600 47.2766
62.8700 54.7567
62.8800 43.5690
62.8900 45.6398
62.9000 49.3870
62.9100 52.3022
62.9200 48.6874
62.9300 59.3963
62.9400 44.0355
62.9500 54.8864
62.9600 53.7642
62.9700 48.2780
62.9800 50.5672
62.9900 54.7123
63.0000 48.9220
63.0100 45.4423
63.0200 49.4740
63.0300 45.9704
63.0400 56.7856
63.0500 43.3578
63.0600 48.9674
63.0700 52.5117
63.0800 56.7644
63.0900 53.5691
63.1000 43.0289
63.1100 52.3417
63.1200 36.7932
63.1300 55.7311
63.1400 53.6781
63.1500 61.0796
63.1600 58.3877
63.1700 48.5449
63.1800 37.8189
63.1900 46.7817
63.2000 39.4699
63.2100 47.1047
63.2200 42.6484
63.2300 54.1531
63.2400 52.2392
63.2500 45.2236
63.2600 46.9435
63.2700 55.4944
63.2800 50.6151
63.2900 46.3095
63.3000 52.8775
63.3100 52.7824
63.3200 41.3782
63.3300 45.5544
63.3400 51.2325
63.3500 49.7723
63.3600 41.3692
63.3700 57.6177
63.3800 48.4309
63.3900 40.9655
63.4000 44.8068
63.4100 48.1983
63.4200 45.0687
63.4300 33.0828
63.4400 41.2130
63.4500 44.0640
63.4600 51.9476
63.4700 45.0738
63.4800 44.5660
63.4900 49.1036
63.5000 47.1944
63.5100 53.2316
63.5200 40.9557
63.5300 45.4069
63.5400 47.8404
63.5500 41.7598
63.5600 47.3791
63.5700 53.7690
63.5800 48.3383
63.5900 61.3850
63.6000 52.2121
63.6100 56.6951
63.6200 63.7691
63.6300 52.6103
63.6400 56.4443
63.6500 63.0892
63.6600 45.7242
63.6700 49.7801
63.6800 47.2453
63.6900 44.4093
63.7000 58.4215
63.7100 57.4327
63.7200 58.6552
63.7300 57.6738
63.7400 41.1932
63.7500 55.4773
63.7600 58.2897
63.7700 45.7766
63.7800 58.7562
63.7900 36.3379
63.8000 53.0307
63.8100 35.7146
63.8200 51.7918
63.8300 48.0080
63.8400 46.8992
63.8500 46.7065
63.8600 54.3090
63.8700 58.9371
63.8800 55.7757
63.8900 50.0079
63.9000 52.2718
63.9100 45.0000
63.9200 54.9246
63.9300 57.3279
63.9400 58.3190
63.9500 38.4110
63.9600 37.2245
63.9700 50.9795
63.9800 54.7315
63.9900 48.2312
64.0000 47.8617
64.0100 43.8516
64.0200 52.9895
64.0300 46.0742
64.0400 50.0895
64.0500 55.9195
64.0600 55.9574
64.0700 61.4812
64.0800 50.1148
64.0900 63.5862
64.1000 48.8773
64.1100 53.7580
64.1200 57.5471
64.1300 63.7287
64.1400 56.0130
64.1500 47.5389
64.1600 51.9942
64.1700 61.2068
64.1800 51.6051
64.1900 50.6215
64.2000 49.3945
64.2100 53.0506
64.2200 41.8472
64.2300 49.5284
64.2400 47.6148
64.2500 35.4053
64.2600 45.7416
64.2700 55.1645
64.2800 52.3183
64.2900 41.5148
64.3000 43.4013
64.3100 55.9912
64.3200 53.8538
64.3300 56.6264
64.3400 43.6214
64.3500 50.8710
64.3600 60.5609
64.3700 46.1324
64.3800 46.8960
64.3900 43.3281
64.4000 51.9665
64.4100 53.2993
64.4200 63.3732
64.4300 43.8840
64.4400 39.2250
64.4500 53.9147
64.4600 49.6764
64.4700 55.8608
64.4800 51.0830
64.4900 50.6043
64.5000 57.2570
64.5100 45.7724
64.5200 50.8401
64.5300 41.7765
64.5400 54.6371
64.5500 59.9212
64.5600 39.8610
64.5700 41.8776
64.5800 52.5503
64.5900 47.8288
64.6000 44.0602
64.6100 42.6550
64.6200 55.4775
64.6300 39.0226
64.6400 46.2993
64.6500 48.1304
64.6600 49.5926
64.6700 44.3108
64.6800 42.5696
64.6900 38.8300
64.7000 47.9422
64.7100 51.0361
64.7200 48.1640
64.7300 55.3769
64.7400 64.2214
64.7500 50.4425
64.7600 52.1108
64.7700 41.2277
64.7800 53.6127
64.7900 59.2515
64.8000 58.1304
64.8100 50.9380
64.8200 57.4624
64.8300 54.2369
64.8400 49.9624
64.8500 58.0523
64.8600 51.5027
64.8700 51.4839
64.8800 49.1340
64.8900 51.9684
64.9000 51.4488
64.9100 41.8742
64.9200 52.6461
64.9300 50.6926
64.9400 37.4535
64.9500 50.6489
64.9600 42.2028
64.9700 55.8560
64.9800 57.3366
64.9900 54.7948
65.0000 58.2850
65.0100 48.6570
65.0200 45.4908
65.0300 35.7827
65.0400 49.1083
65.0500 46.4525
65.0600 61.7570
65.0700 45.3549
65.0800 44.4784
65.0900 44.8610
65.1000 49.7000
65.1100 51.5251
65.1200 50.2429
65.1300 49.1504
65.1400 52.3948
65.1500 55.6169
65.1600 40.9638
65.1700 48.8697
65.1800 49.0957
65.1900 55.5241
65.2000 53.9558
65.2100 62.6249
65.2200 51.2311
65.2300 45.1531
65.2400 44.9015
65.2500 57.2699
65.2600 62.6861
65.2700 51.6075
65.2800 48.9278
65.2900 40.9027
65.3000 57.4393
65.3100 52.1280
65.3200 51.0755
65.3300 46.2375
65.3400 41.4607
65.3500 47.0014
65.3600 47.8016
65.3700 64.9854
65.3800 47.3672
65.3900 45.4045
65.4000 50.4543
65.4100 52.9423
65.4200 42.1769
65.4300 53.2272
65.4400 47.2300
65.4500 40.4675
65.4600 48.4314
65.4700 62.7471
65.4800 47.7712
65.4900 50.4550
65.5000 59.8618
65.5100 48.3418
65.5200 47.8084
65.5300 56.4428
65.5400 51.0532
65.5500 44.4271
65.5600 46.5358
65.5700 60.1457
65.5800 43.7282
65.5900 61.0681
65.6000 41.6736
65.6100 50.4798
65.6200 48.2473
65.6300 53.8013
65.6400 49.5885
65.6500 51.0148
65.6600 44.8686
65.6700 47.6324
65.6800 47.0573
65.6900 46.3421
65.7000 47.2744
65.7100 42.7547
65.7200 41.0013
65.7300 49.0841
65.7400 46.9200
65.7500 50.4303
65.7600 54.5347
65.7700 53.7385
65.7800 55.8012
65.7900 58.0742
65.8000 43.8441
65.8100 48.2224
65.8200 44.1473
65.8300 43.5772
65.8400 43.3993
65.8500 42.2561
65.8600 46.5079
65.8700 44.4955
65.8800 42.2230
65.8900 49.6349
65.9000 49.5105
65.9100 52.9429
65.9200 40.6841
65.9300 35.4678
65.9400 37.3877
65.9500 51.7110
65.9600 50.4293
65.9700 60.6487
65.9800 50.9723
65.9900 53.6099
66.0000 43.8034
66.0100 49.2742
66.0200 59.7448
66.0300 46.1486
66.0400 47.7551
66.0500 57.4812
66.0600 44.9156
66.0700 40.1069
66.0800 51.3209
66.0900 54.9656
66.1000 46.5513
66.1100 56.6260
66.1200 40.6177
66.1300 40.5626
66.1400 40.5601
66.1500 58.2513
66.1600 50.1553
66.1700 45.9951
66.1800 54.3505
66.1900 51.4290
66.2000 51.1020
66.2100 46.8652
66.2200 44.4855
66.2300 54.0778
66.2400 49.0532
66.2500 55.3558
66.2600 51.0211
66.2700 56.1526
66.2800 62.6441
66.2900 48.2120
66.3000 35.5654
66.3100 44.4458
66.3200 52.2920
66.3300 42.7576
66.3400 56.6128
66.3500 49.8244
66.3600 54.6406
66.3700 51.2716
66.3800 43.4007
66.3900 42.4295
66.4000 34.8953
66.4100 39.9785
66.4200 40.5747
66.4300 50.0431
66.4400 51.5885
66.4500 55.4396
66.4600 52.8874
66.4700 47.3731
66.4800 58.3650
66.4900 48.4632
66.5000 49.2563
66.5100 45.8584
66.5200 41.9531
66.5300 54.4416
66.5400 52.6347
66.5500 42.6109
66.5600 57.0579
66.5700 43.1442
66.5800 50.8451
66.5900 51.8114
66.6000 58.1468
66.6100 48.7390
66.6200 39.3921
66.6300 38.7526
66.6400 51.4453
66.6500 46.0543
66.6600 43.9497
66.6700 54.6826
66.6800 44.5239
66.6900 48.4281
66.7000 50.4065
66.7100 44.6188
66.7200 43.5805
66.7300 42.1333
66.7400 42.6604
66.7500 48.6875
66.7600 56.1567
66.7700 43.8775
66.7800 55.4370
66.7900 60.9143
66.8000 50.5780
66.8100 53.8462
66.8200 45.8658
66.8300 49.6702
66.8400 49.2648
66.8500 47.1574
66.8600 45.8592
66.8700 50.0500
66.8800 55.5935
66.8900 55.4883
66.9000 55.1356
66.9100 46.6420
66.9200 47.3936
66.9300 50.2187
66.9400 51.1518
66.9500 44.4705
66.9600 48.8377
66.9700 50.7493
66.9800 43.6908
66.9900 41.0131
67.0000 44.4387
67.0100 42.9175
67.0200 59.4242
67.0300 48.1495
67.0400 47.4899
67.0500 47.0862
67.0600 51.2415
67.0700 49.3283
67.0800 39.5365
67.0900 45.4313
67.1000 49.8180
67.1100 45.7741
67.1200 41.8574
67.1300 38.0995
67.1400 33.0460
67.1500 36.0386
67.1600 45.5556
67.1700 46.9531
67.1800 44.6881
67.1900 46.8812
67.2000 58.3191
67.2100 49.0881
67.2200 52.2338
67.2300 47.9575
67.2400 55.7584
67.2500 39.4875
67.2600 56.4861
67.2700 50.6529
67.2800 44.3057
67.2900 55.3570
67.3000 34.4048
67.3100 48.8049
67.3200 51.4611
67.3300 52.9992
67.3400 48.5567
67.3500 49.3348
67.3600 38.5735
67.3700 39.9568
67.3800 45.4376
67.3900 56.9490
67.4000 50.5800
67.4100 46.2734
67.4200 52.5252
67.4300 43.2614
67.4400 45.9875
67.4500 53.1906
67.4600 56.2668
67.4700 46.9052
67.4800 52.8362
67.4900 38.8185
67.5000 55.1629
67.5100 53.3413
67.5200 52.2246
67.5300 51.1363
67.5400 49.8334
67.5500 42.7314
67.5600 49.1929
67.5700 58.7171
67.5800 51.2822
67.5900 60.2927
67.6000 51.3068
67.6100 55.5086
67.6200 44.3284
67.6300 55.7157
67.6400 45.1929
67.6500 36.7303
67.6600 42.1903
67.6700 36.7932
67.6800 48.5972
67.6900 45.0228
67.7000 45.2903
67.7100 50.0508
67.7200 53.5181
67.7300 49.6467
67.7400 43.5879
67.7500 42.7025
67.7600 53.0410
67.7700 47.7679
67.7800 49.6610
67.7900 53.3120
67.8000 49.2858
67.8100 39.6040
67.8200 47.1477
67.8300 37.5185
67.8400 43.4248
67.8500 42.2802
67.8600 39.5645
67.8700 47.5854
67.8800 44.1537
67.8900 48.6061
67.9000 65.2834
67.9100 46.4183
67.9200 44.6760
67.9300 38.7782
67.9400 45.6053
67.9500 47.8977
67.9600 36.8164
67.9700 52.7033
67.9800 53.8544
67.9900 47.6182
68.0000 49.5268
68.0100 46.8007
68.0200 55.1562
68.0300 49.7266
68.0400 45.4735
68.0500 46.6133
68.0600 46.9070
68.0700 48.7813
68.0800 61.6613
68.0900 53.8159
68.1000 53.1159
68.1100 58.9095
68.1200 40.2877
68.1300 54.7018
68.1400 46.2284
68.1500 44.7967
68.1600 46.3854
68.1700 42.4812
68.1800 45.9429
68.1900 53.1024
68.2000 50.8353
68.2100 55.2974
68.2200 32.6244
68.2300 46.2339
68.2400 50.1040
68.2500 50.4283
68.2600 48.6213
68.2700 45.6877
68.2800 65.8612
68.2900 45.1730
68.3000 49.8928
68.3100 39.0097
68.3200 51.9418
68.3300 62.5199
68.3400 57.5794
68.3500 40.4695
68.3600 44.6732
68.3700 47.9214
68.3800 49.3165
68.3900 40.9185
68.4000 52.0867
68.4100 51.7361
68.4200 50.6976
68.4300 58.0151
68.4400 55.3020
68.4500 52.9609
68.4600 66.5674
68.4700 54.7373
68.4800 61.6316
68.4900 52.4496
68.5000 45.8256
68.5100 46.5941
68.5200 44.4128
68.5300 37.9287
68.5400 39.8010
68.5500 56.8290
68.5600 43.5735
68.5700 60.7227
68.5800 51.5583
68.5900 49.1332
68.6000 52.5977
68.6100 45.9581
68.6200 36.9510
68.6300 47.0912
68.6400 38.0493
68.6500 47.4361
68.6600 38.2673
68.6700 52.6693
68.6800 63.2246
68.6900 48.8789
68.7000 41.7320
68.7100 43.1085
68.7200 54.4991
68.7300 51.7086
68.7400 52.3918
68.7500 48.7132
68.7600 46.1371
68.7700 51.9564
68.7800 48.6151
68.7900 52.1108
68.8000 33.2112
68.8100 42.2765
68.8200 44.1482
68.8300 42.8297
68.8400 53.0137
68.8500 50.5407
68.8600 53.1220
68.8700 49.6415
68.8800 44.5400
68.8900 45.2809
68.9000 56.3529
68.9100 51.7480
68.9200 47.8251
68.9300 50.5517
68.9400 47.9794
68.9500 47.7181
68.9600 45.4656
68.9700 55.5485
68.9800 48.4149
68.9900 42.5610
69.0000 49.1379
69.0100 44.1851
69.0200 43.1621
69.0300 49.9381
69.0400 49.1831
69.0500 48.3663
69.0600 44.7713
69.0700 48.7664
69.0800 46.8332
69.0900 44.6731
69.1000 46.6916
69.1100 42.6831
69.1200 50.8066
69.1300 35.2188
69.1400 43.7222
69.1500 39.3410
69.1600 48.5370
69.1700 39.8151
69.1800 57.2431
69.1900 34.2408
69.2000 44.6846
69.2100 48.5149
69.2200 54.0571
69.2300 46.1210
69.2400 47.1057
69.2500 48.2689
69.2600 52.0191
69.2700 51.7037
69.2800 48.0620
69.2900 53.7269
69.3000 46.2200
69.3100 47.6440
69.3200 52.1164
69.3300 38.5309
69.3400 41.0381
69.3500 42.9271
69.3600 48.0218
69.3700 60.2587
69.3800 44.3923
69.3900 39.2279
69.4000 44.7676
69.4100 43.4114
69.4200 45.0247
69.4300 44.5965
69.4400 50.5485
69.4500 45.4582
69.4600 51.6533
69.4700 50.2418
69.4800 43.2898
69.4900 35.4901
69.5000 47.6911
69.5100 41.5301
69.5200 33.4798
69.5300 57.1589
69.5400 48.9022
69.5500 54.5697
69.5600 41.9211
69.5700 49.3983
69.5800 47.1119
69.5900 57.8504
69.6000 46.3244
69.6100 51.7787
69.6200 42.6795
69.6300 40.5265
69.6400 40.1304
69.6500 57.0120
69.6600 44.8144
69.6700 44.3064
69.6800 51.2419
69.6900 48.5549
69.7000 56.4728
69.7100 50.2098
69.7200 43.3076
69.7300 46.9032
69.7400 46.4024
69.7500 43.7587
69.7600 49.8292
69.7700 53.5615
69.7800 45.1671
69.7900 57.8551
69.8000 43.2544
69.8100 45.3918
69.8200 40.3664
69.8300 54.4126
69.8400 58.3207
69.8500 43.7817
69.8600 42.8398
69.8700 46.0375
69.8800 48.9864
69.8900 43.0551
69.9000 45.0121
69.9100 45.7064
69.9200 49.6692
69.9300 41.5615
69.9400 53.0954
69.9500 39.1649
69.9600 44.3516
69.9700 56.9753
69.9800 52.9301
69.9900 43.0651
70.0000 52.4611
70.0100 50.2799
70.0200 44.7596
70.0300 41.7625
70.0400 54.2980
70.0500 48.0828
70.0600 55.4837
70.0700 54.4421
70.0800 40.6276
70.0900 46.8595
70.1000 49.7041
70.1100 48.2579
70.1200 52.4276
70.1300 44.0368
70.1400 54.9890
70.1500 44.3983
70.1600 55.0460
70.1700 52.2758
70.1800 51.1891
70.1900 48.3399
70.2000 47.9385
70.2100 55.5071
70.2200 63.1004
70.2300 39.9609
70.2400 48.9009
70.2500 50.6229
70.2600 52.0481
70.2700 50.8713
70.2800 45.8767
70.2900 39.9562
70.3000 42.7934
70.3100 54.5761
70.3200 42.4995
70.3300 63.2091
70.3400 42.9233
70.3500 56.7868
70.3600 52.9761
70.3700 49.2926
70.3800 45.8441
70.3900 43.0188
70.4000 58.1811
70.4100 44.9469
70.4200 46.3969
70.4300 48.8844
70.4400 44.8545
70.4500 48.6510
70.4600 53.6191
70.4700 53.1889
70.4800 56.8105
70.4900 54.5893
70.5000 55.3624
70.5100 51.8914
70.5200 48.9601
70.5300 51.6083
70.5400 48.9199
70.5500 51.0906
70.5600 48.5966
70.5700 54.1809
70.5800 61.5382
70.5900 38.4370
70.6000 52.0776
70.6100 43.2335
70.6200 48.9142
70.6300 48.6095
70.6400 58.3304
70.6500 55.2330
70.6600 53.3960
70.6700 47.0624
70.6800 53.3455
70.6900 42.3176
70.7000 41.9538
70.7100 48.6175
70.7200 45.2960
70.7300 45.3298
70.7400 38.9095
70.7500 50.3592
70.7600 56.7012
70.7700 53.0315
70.7800 46.4948
70.7900 43.0637
70.8000 36.1411
70.8100 45.5946
70.8200 46.6726
70.8300 56.1304
70.8400 51.8664
70.8500 42.8713
70.8600 43.4711
70.8700 49.7161
70.8800 62.2016
70.8900 49.7331
70.9000 49.2486
70.9100 50.6604
70.9200 53.5932
70.9300 54.4514
70.9400 56.1544
70.9500 53.6580
70.9600 58.0738
70.9700 56.8936
70.9800 52.6677
70.9900 59.7598
71.0000 38.0531
71.0100 48.6087
71.0200 51.8521
71.0300 59.3603
71.0400 52.2840
71.0500 34.5811
71.0600 55.0150
71.0700 62.9723
71.0800 47.7593
71.0900 43.1219
71.1000 55.2534
71.1100 32.9671
71.1200 36.7150
71.1300 47.5300
71.1400 56.7734
71.1500 49.5374
71.1600 44.4500
71.1700 53.8125
71.1800 53.2184
71.1900 56.3973
71.2000 37.7320
71.2100 51.6992
71.2200 48.1064
71.2300 50.8180
71.2400 48.8293
71.2500 49.6019
71.2600 42.7233
71.2700 55.8484
71.2800 43.8359
71.2900 46.1866
71.3000 56.5691
71.3100 42.8268
71.3200 45.2879
71.3300 42.0245
71.3400 55.9192
71.3500 43.8259
71.3600 48.8279
71.3700 52.3884
71.3800 50.4641
71.3900 39.3126
71.4000 48.7442
71.4100 48.3604
71.4200 40.3198
71.4300 48.4957
71.4400 45.6804
71.4500 29.7612
71.4600 44.0162
71.4700 44.4557
71.4800 42.1165
71.4900 43.8892
71.5000 47.9342
71.5100 39.1705
71.5200 50.1638
71.5300 47.6061
71.5400 44.8896
71.5500 50.9833
71.5600 50.3551
71.5700 39.6106
71.5800 34.2402
71.5900 47.5731
71.6000 39.2813
71.6100 50.2911
71.6200 48.3140
71.6300 45.9228
71.6400 49.9347
71.6500 47.7210
71.6600 46.8039
71.6700 40.8947
71.6800 49.8254
71.6900 47.2340
71.7000 49.2818
71.7100 39.8790
71.7200 43.2367
71.7300 48.2087
71.7400 55.4292
71.7500 51.2996
71.7600 50.1130
71.7700 46.9878
71.7800 47.6937
71.7900 41.4322
71.8000 52.2430
71.8100 42.5207
71.8200 40.1288
71.8300 37.5131
71.8400 53.7225
71.8500 41.9545
71.8600 39.7670
71.8700 36.0906
71.8800 34.8458
71.8900 37.8287
71.9000 43.9349
71.9100 50.4077
71.9200 59.4911
71.9300 60.4993
71.9400 54.2191
71.9500 42.6485
71.9600 43.5816
71.9700 46.0446
71.9800 49.7159
71.9900 52.8916
72.0000 47.4259
72.0100 54.1284
72.0200 52.8831
72.0300 53.3751
72.0400 47.3200
72.0500 43.8431
72.0600 44.5322
72.0700 50.0978
72.0800 39.1027
72.0900 39.0655
72.1000 58.5464
72.1100 50.0873
72.1200 64.4999
72.1300 60.1150
72.1400 46.4872
72.1500 49.6304
72.1600 56.2392
72.1700 43.7461
72.1800 41.2581
72.1900 51.9158
72.2000 60.4752
72.2100 50.4512
72.2200 57.0875
72.2300 39.6514
72.2400 47.0839
72.2500 44.1730
72.2600 44.5461
72.2700 36.9214
72.2800 45.8752
72.2900 50.8204
72.3000 52.8131
72.3100 44.5213
72.3200 49.0323
72.3300 51.9318
72.3400 50.7292
72.3500 38.8370
72.3600 49.3575
72.3700 61.9321
72.3800 48.4439
72.3900 60.2181
72.4000 49.4266
72.4100 54.5391
72.4200 49.6231
72.4300 58.9998
72.4400 44.5044
72.4500 38.3138
72.4600 44.4007
72.4700 54.0336
72.4800 45.6093
72.4900 51.0719
72.5000 45.0088
72.5100 56.7220
72.5200 49.1393
72.5300 49.9137
72.5400 43.8998
72.5500 52.1785
72.5600 47.9341
72.5700 57.0140
72.5800 45.3694
72.5900 40.4211
72.6000 60.6482
72.6100 47.3395
72.6200 41.7468
72.6300 43.2967
72.6400 46.1743
72.6500 51.0442
72.6600 57.6969
72.6700 55.1883
72.6800 44.5365
72.6900 45.7565
72.7000 54.1845
72.7100 45.7257
72.7200 51.8830
72.7300 51.2330
72.7400 53.5335
72.7500 39.9234
72.7600 41.2635
72.7700 47.0113
72.7800 46.3206
72.7900 33.6630
72.8000 49.7426
72.8100 41.0009
72.8200 55.6459
72.8300 53.6938
72.8400 53.9535
72.8500 49.0002
72.8600 49.9831
72.8700 42.2059
72.8800 49.3506
72.8900 50.1517
72.9000 49.9769
72.9100 49.5330
72.9200 52.4537
72.9300 48.4851
72.9400 52.9126
72.9500 53.7319
72.9600 46.4074
72.9700 50.0864
72.9800 56.8196
72.9900 50.1248
73.0000 46.0772
73.0100 58.1796
73.0200 43.8209
73.0300 49.1761
73.0400 51.5502
73.0500 51.4313
73.0600 63.1256
73.0700 50.8931
73.0800 47.8460
73.0900 46.2890
73.1000 53.6580
73.1100 52.5600
73.1200 53.0960
73.1300 54.1897
73.1400 42.3624
73.1500 58.4852
73.1600 57.7020
73.1700 43.6108
73.1800 54.7562
73.1900 52.9497
73.2000 36.5523
73.2100 37.7835
73.2200 43.3534
73.2300 53.2012
73.2400 49.5635
73.2500 49.8378
73.2600 48.7453
73.2700 49.9381
73.2800 57.7502
73.2900 49.0998
73.3000 47.4226
73.3100 49.1396
73.3200 54.2308
73.3300 43.5436
73.3400 43.9503
73.3500 49.5629
73.3600 37.4237
73.3700 39.2964
73.3800 46.9386
73.3900 40.9302
73.4000 43.1271
73.4100 45.7133
73.4200 49.3408
73.4300 51.5578
73.4400 36.6431
73.4500 53.5171
73.4600 42.6419
73.4700 54.2173
73.4800 43.7075
73.4900 52.2509
73.5000 51.9328
73.5100 55.4144
73.5200 63.3077
73.5300 46.6085
73.5400 52.4492
73.5500 51.9088
73.5600 41.7314
73.5700 42.7141
73.5800 48.3200
73.5900 43.8391
73.6000 44.1777
73.6100 56.2236
73.6200 44.8303
73.6300 49.0907
73.6400 47.1271
73.6500 40.1394
73.6600 46.1346
73.6700 47.1039
73.6800 53.4218
73.6900 47.9049
73.7000 54.4927
73.7100 57.6554
73.7200 46.6959
73.7300 52.6844
73.7400 47.2613
73.7500 53.0084
73.7600 45.6181
73.7700 51.2424
73.7800 53.8092
73.7900 51.9470
73.8000 43.3812
73.8100 56.7719
73.8200 46.3111
73.8300 43.9105
73.8400 45.2167
73.8500 53.7962
73.8600 50.1050
73.8700 46.9038
73.8800 35.3330
73.8900 49.0279
73.9000 40.0418
73.9100 48.0313
73.9200 44.3900
73.9300 53.6716
73.9400 52.2332
73.9500 53.4745
73.9600 52.9066
73.9700 44.2152
73.9800 45.0441
73.9900 45.2945
74.0000 43.0230
74.0100 45.9216
74.0200 54.3205
74.0300 53.6344
74.0400 60.4868
74.0500 49.6043
74.0600 57.3922
74.0700 53.7485
74.0800 47.1110
74.0900 50.7705
74.1000 52.5357
74.1100 49.3724
74.1200 42.7433
74.1300 41.1286
74.1400 38.5480
74.1500 42.0573
74.1600 49.5715
74.1700 50.0882
74.1800 48.8191
74.1900 51.1784
74.2000 49.8519
74.2100 45.0068
74.2200 53.8161
74.2300 67.2347
74.2400 50.0312
74.2500 46.2696
74.2600 47.9446
74.2700 70.5203
74.2800 44.1805
74.2900 52.9006
74.3000 62.9482
74.3100 60.3298
74.3200 41.3617
74.3300 55.7059
74.3400 49.5845
74.3500 43.6988
74.3600 53.0786
74.3700 59.2288
74.3800 54.4443
74.3900 51.5565
74.4000 50.7015
74.4100 44.8046
74.4200 46.2589
74.4300 50.8617
74.4400 50.1287
74.4500 42.5407
74.4600 52.0028
74.4700 58.0884
74.4800 42.4902
74.4900 45.4246
74.5000 49.7761
74.5100 48.3464
74.5200 36.7279
74.5300 53.6904
74.5400 41.6983
74.5500 44.2141
74.5600 41.6792
74.5700 58.8613
74.5800 50.5290
74.5900 39.2232
74.6000 60.8625
74.6100 44.1515
74.6200 47.8781
74.6300 46.9427
74.6400 48.4648
74.6500 45.5619
74.6600 38.2485
74.6700 41.9024
74.6800 49.4761
74.6900 42.5941
74.7000 36.7827
74.7100 53.4633
74.7200 52.6205
74.7300 45.1805
74.7400 39.6117
74.7500 45.6413
74.7600 47.3614
74.7700 45.9078
74.7800 46.3444
74.7900 45.3715
74.8000 59.2541
74.8100 53.7567
74.8200 46.4178
74.8300 54.4421
74.8400 45.0851
74.8500 50.7909
74.8600 46.8558
74.8700 37.4621
74.8800 52.5694
74.8900 54.5534
74.9000 47.2389
74.9100 42.2330
74.9200 46.0859
74.9300 47.1037
74.9400 42.5009
74.9500 50.4570
74.9600 40.1554
74.9700 39.0092
74.9800 53.9232
74.9900 59.5922
75.0000 41.8279
75.0100 43.4462
75.0200 51.5342
75.0300 61.1023
75.0400 49.3433
75.0500 54.6672
75.0600 49.5480
75.0700 49.7008
75.0800 37.5346
75.0900 62.8073
75.1000 56.5364
75.1100 43.7566
75.1200 46.2421
75.1300 48.3222
75.1400 45.9811
75.1500 47.6600
75.1600 32.7800
75.1700 59.4470
75.1800 53.4246
75.1900 44.1961
75.2000 46.7608
75.2100 34.4300
75.2200 51.5825
75.2300 57.1015
75.2400 59.4662
75.2500 48.0878
75.2600 41.8296
75.2700 56.0487
75.2800 45.5847
75.2900 36.8900
75.3000 36.8431
75.3100 47.7183
75.3200 42.3145
75.3300 56.5961
75.3400 54.6999
75.3500 54.7853
75.3600 57.7559
75.3700 43.3141
75.3800 49.2439
75.3900 44.7561
75.4000 56.4776
75.4100 47.4803
75.4200 46.4291
75.4300 53.7007
75.4400 45.5512
75.4500 46.4253
75.4600 42.1014
75.4700 47.6861
75.4800 52.2969
75.4900 43.5505
75.5000 49.5918
75.5100 47.0726
75.5200 48.6079
75.5300 50.7549
75.5400 44.1697
75.5500 51.5856
75.5600 50.6710
75.5700 53.6333
75.5800 44.1150
75.5900 56.8807
75.6000 48.6605
75.6100 52.0994
75.6200 48.3011
75.6300 58.1726
75.6400 51.8454
75.6500 48.2546
75.6600 52.9904
75.6700 52.0984
75.6800 50.9109
75.6900 40.8152
75.7000 57.6406
75.7100 52.9613
75.7200 56.6899
75.7300 42.4404
75.7400 38.9813
75.7500 45.1933
75.7600 41.6678
75.7700 44.3930
75.7800 49.6171
75.7900 47.7506
75.8000 49.4817
75.8100 56.4673
75.8200 49.5755
75.8300 51.5919
75.8400 42.3261
75.8500 39.3917
75.8600 47.1877
75.8700 46.4853
75.8800 55.9731
75.8900 51.0660
75.9000 49.0954
75.9100 55.2355
75.9200 48.5343
75.9300 43.0238
75.9400 39.4504
75.9500 39.9320
75.9600 52.2956
75.9700 39.6757
75.9800 61.0919
75.9900 44.0447
76.0000 49.2969
76.0100 49.5286
76.0200 50.9499
76.0300 46.2910
76.0400 47.5572
76.0500 42.7753
76.0600 40.5131
76.0700 59.3613
76.0800 46.6408
76.0900 36.2891
76.1000 41.6373
76.1100 44.4048
76.1200 63.9482
76.1300 42.8528
76.1400 47.3296
76.1500 54.0696
76.1600 41.1537
76.1700 49.3279
76.1800 43.3705
76.1900 54.0024
76.2000 53.9496
76.2100 45.8681
76.2200 47.0937
76.2300 35.6779
76.2400 53.3774
76.2500 60.5856
76.2600 50.2585
76.2700 50.6902
76.2800 48.0268
76.2900 41.6547
76.3000 39.6834
76.3100 55.7453
76.3200 47.2215
76.3300 53.1151
76.3400 54.5628
76.3500 46.1844
76.3600 48.9004
76.3700 56.5945
76.3800 52.9477
76.3900 60.2758
76.4000 57.1275
76.4100 45.6801
76.4200 57.3618
76.4300 57.2254
76.4400 45.6000
76.4500 41.4672
76.4600 57.5478
76.4700 47.9496
76.4800 59.4838
76.4900 53.1353
76.5000 55.0325
76.5100 52.8273
76.5200 54.3159
76.5300 48.6569
76.5400 51.1374
76.5500 55.7940
76.5600 47.1843
76.5700 51.2576
76.5800 49.4311
76.5900 53.3855
76.6000 46.4437
76.6100 47.3272
76.6200 44.5718
76.6300 52.4030
76.6400 44.0891
76.6500 51.2662
76.6600 47.6815
76.6700 43.4150
76.6800 58.8997
76.6900 58.3193
76.7000 38.1471
76.7100 45.5140
76.7200 59.6018
76.7300 53.6312
76.7400 50.0701
76.7500 41.2815
76.7600 59.8621
76.7700 54.8058
76.7800 43.1145
76.7900 48.8177
76.8000 47.2491
76.8100 47.2465
76.8200 42.6113
76.8300 46.3819
76.8400 38.8807
76.8500 49.7524
76.8600 62.4928
76.8700 51.2010
76.8800 51.8367
76.8900 42.2620
76.9000 50.9728
76.9100 45.0740
76.9200 43.2841
76.9300 57.3028
76.9400 50.3035
76.9500 52.4433
76.9600 59.6732
76.9700 52.1547
76.9800 52.6256
76.9900 55.1837
77.0000 43.9920
77.0100 49.2966
77.0200 40.9100
77.0300 47.4984
77.0400 53.9373
77.0500 47.8381
77.0600 54.3037
77.0700 48.0917
77.0800 51.9181
77.0900 57.7045
77.1000 46.8340
77.1100 52.3209
77.1200 45.5087
77.1300 44.9993
77.1400 61.9317
77.1500 51.7639
77.1600 55.3355
77.1700 45.5877
77.1800 38.3458
77.1900 47.8571
77.2000 52.8262
77.2100 45.8742
77.2200 31.4962
77.2300 50.0898
77.2400 48.1982
77.2500 51.4961
77.2600 55.2410
77.2700 57.7300
77.2800 53.0345
77.2900 42.7620
77.3000 48.5563
77.3100 41.1151
77.3200 40.7459
77.3300 51.1763
77.3400 44.0346
77.3500 57.5701
77.3600 46.5968
77.3700 62.5934
77.3800 53.4900
77.3900 53.7907
77.4000 48.9481
77.4100 51.7733
77.4200 51.6004
77.4300 46.7447
77.4400 41.9552
77.4500 37.2958
77.4600 54.8852
77.4700 46.6000
77.4800 48.0694
77.4900 36.5428
77.5000 42.6081
77.5100 51.9631
77.5200 43.8319
77.5300 48.4125
77.5400 42.2924
77.5500 46.2405
77.5600 48.9742
77.5700 46.3460
77.5800 52.9738
77.5900 46.1941
77.6000 56.2024
77.6100 57.9148
77.6200 46.1613
77.6300 55.3951
77.6400 29.3924
77.6500 42.3533
77.6600 45.9460
77.6700 52.0789
77.6800 49.8242
77.6900 54.7871
77.7000 46.7390
77.7100 39.2757
77.7200 43.3849
77.7300 62.9610
77.7400 48.5514
77.7500 44.7996
77.7600 29.8909
77.7700 55.7907
77.7800 42.6042
77.7900 53.2669
77.8000 50.0559
77.8100 44.5484
77.8200 50.5826
77.8300 46.4041
77.8400 55.4699
77.8500 68.5100
77.8600 43.2928
77.8700 46.4879
77.8800 46.0548
77.8900 51.9142
77.9000 54.1078
77.9100 50.5627
77.9200 44.0429
77.9300 39.8556
77.9400 47.7577
77.9500 42.2440
77.9600 47.8180
77.9700 50.1746
77.9800 63.7367
77.9900 40.8005
78.0000 44.3884
78.0100 50.6536
78.0200 55.6205
78.0300 51.9246
78.0400 50.5396
78.0500 39.9606
78.0600 33.3678
78.0700 50.4229
78.0800 48.3775
78.0900 59.4958
78.1000 47.5483
78.1100 57.9421
78.1200 54.2735
78.1300 55.3497
78.1400 44.3619
78.1500 44.8088
78.1600 31.8239
78.1700 55.0220
78.1800 55.0842
78.1900 54.8611
78.2000 40.1099
78.2100 40.7540
78.2200 43.0812
78.2300 46.7847
78.2400 41.8354
78.2500 48.8835
78.2600 48.7592
78.2700 64.3942
78.2800 45.3664
78.2900 52.7724
78.3000 48.4553
78.3100 41.4566
78.3200 48.5234
78.3300 51.5186
78.3400 51.5573
78.3500 46.1243
78.3600 54.2038
78.3700 41.6079
78.3800 44.7530
78.3900 58.0363
78.4000 38.1835
78.4100 46.2718
78.4200 51.6789
78.4300 46.5681
78.4400 44.8470
78.4500 43.4844
78.4600 63.6851
78.4700 57.2544
78.4800 54.0795
78.4900 46.1805
78.5000 46.7073
78.5100 45.8868
78.5200 47.7113
78.5300 55.7363
78.5400 42.8665
78.5500 43.4020
78.5600 47.8359
78.5700 48.6403
78.5800 52.5535
78.5900 60.8663
78.6000 57.9986
78.6100 55.6279
78.6200 64.7064
78.6300 40.4727
78.6400 50.3312
78.6500 50.1895
78.6600 42.2756
78.6700 38.0803
78.6800 41.1200
78.6900 41.9674
78.7000 42.7277
78.7100 45.7985
78.7200 49.7421
78.7300 45.3666
78.7400 51.0884
78.7500 56.0529
78.7600 48.1068
78.7700 47.7881
78.7800 46.8280
78.7900 44.0750
78.8000 38.5621
78.8100 38.9483
78.8200 47.6658
78.8300 47.8917
78.8400 47.3116
78.8500 51.1359
78.8600 42.4142
78.8700 45.5707
78.8800 58.0289
78.8900 48.5429
78.9000 59.5222
78.9100 56.2217
78.9200 49.0124
78.9300 49.9935
78.9400 48.7353
78.9500 43.8578
78.9600 52.6280
78.9700 45.4721
78.9800 54.3544
78.9900 41.9163
79.0000 54.5087
79.0100 67.2015
79.0200 49.3459
79.0300 50.2034
79.0400 47.4977
79.0500 51.3960
79.0600 47.8008
79.0700 34.8263
79.0800 35.4777
79.0900 51.5719
79.1000 51.1670
79.1100 39.8578
79.1200 50.1435
79.1300 49.9821
79.1400 53.7642
79.1500 59.4483
79.1600 60.4844
79.1700 54.3137
79.1800 52.8145
79.1900 44.2043
79.2000 45.9872
79.2100 48.3853
79.2200 62.4415
79.2300 52.6427
79.2400 41.5176
79.2500 51.6537
79.2600 43.7978
79.2700 53.7001
79.2800 52.9413
79.2900 52.1361
79.3000 47.0738
79.3100 46.5097
79.3200 54.8951
79.3300 40.0029
79.3400 53.2931
79.3500 60.3561
79.3600 45.0701
79.3700 46.8957
79.3800 60.0728
79.3900 49.1392
79.4000 49.9495
79.4100 55.8294
79.4200 39.6879
79.4300 55.2367
79.4400 56.2856
79.4500 47.7863
79.4600 54.3758
79.4700 49.6722
79.4800 44.0337
79.4900 39.8276
79.5000 39.4291
79.5100 43.4828
79.5200 48.9518
79.5300 44.2166
79.5400 48.0426
79.5500 48.6802
79.5600 54.3578
79.5700 42.3873
79.5800 50.6373
79.5900 50.1810
79.6000 50.6342
79.6100 56.8044
79.6200 46.4156
79.6300 44.7775
79.6400 45.3872
79.6500 43.1960
79.6600 48.7947
79.6700 52.0183
79.6800 37.8605
79.6900 51.7271
79.7000 47.8377
79.7100 35.7435
79.7200 56.8036
79.7300 51.0638
79.7400 44.6887
79.7500 47.9358
79.7600 44.1427
79.7700 40.7626
79.7800 53.8779
79.7900 50.9373
79.8000 45.0357
79.8100 56.4075
79.8200 67.4077
79.8300 48.9049
79.8400 42.7501
79.8500 52.4301
79.8600 53.8450
79.8700 52.4240
79.8800 52.1915
79.8900 50.4723
79.9000 48.1817
79.9100 45.2601
79.9200 46.3435
79.9300 44.9210
79.9400 49.4868
79.9500 49.0110
79.9600 61.3905
79.9700 52.5432
79.9800 47.4138
79.9900 47.7641
80.0000 58.2453
80.0100 56.0555
80.0200 51.9253
80.0300 60.5825
80.0400 57.6676
80.0500 51.5887
80.0600 61.9876
80.0700 49.0832
80.0800 50.7839
80.0900 50.5934
80.1000 38.5179
80.1100 47.4233
80.1200 63.3827
80.1300 46.4529
80.1400 49.4522
80.1500 49.9556
80.1600 34.7191
80.1700 54.9620
80.1800 55.4921
80.1900 49.1877
80.2000 45.1955
80.2100 54.7414
80.2200 67.4257
80.2300 58.4413
80.2400 47.4612
80.2500 40.1173
80.2600 61.1719
80.2700 49.5893
80.2800 51.0570
80.2900 48.9450
80.3000 63.8472
80.3100 40.6956
80.3200 46.0843
80.3300 48.2863
80.3400 50.4113
80.3500 50.7404
80.3600 44.6941
80.3700 41.9216
80.3800 53.2454
80.3900 47.6058
80.4000 44.1808
80.4100 42.9523
80.4200 39.6330
80.4300 54.3650
80.4400 58.2244
80.4500 61.6615
80.4600 61.8836
80.4700 54.4008
80.4800 46.3917
80.4900 52.6680
80.5000 62.9504
80.5100 56.3273
80.5200 43.4861
80.5300 52.4754
80.5400 48.8403
80.5500 46.7141
80.5600 49.3450
80.5700 52.2845
80.5800 64.6528
80.5900 49.1618
80.6000 49.6359
80.6100 54.2297
80.6200 69.5254
80.6300 64.1611
80.6400 39.3483
80.6500 54.9937
80.6600 50.2101
80.6700 54.7066
80.6800 52.9223
80.6900 39.6544
80.7000 56.5064
80.7100 49.1946
80.7200 57.0055
80.7300 55.0084
80.7400 60.3099
80.7500 47.2447
80.7600 38.1657
80.7700 51.2728
80.7800 47.2737
80.7900 48.5984
80.8000 52.5749
80.8100 59.0907
80.8200 64.2119
80.8300 53.0800
80.8400 56.2167
80.8500 54.3048
80.8600 50.4148
80.8700 54.5335
80.8800 50.2568
80.8900 54.0890
80.9000 53.1787
80.9100 48.7871
80.9200 57.3342
80.9300 58.9466
80.9400 46.5179
80.9500 63.3162
80.9600 57.1180
80.9700 56.4553
80.9800 46.5517
80.9900 54.0025
81.0000 51.2090
81.0100 58.1489
81.0200 56.1146
81.0300 52.5544
81.0400 52.3642
81.0500 57.5796
81.0600 43.7650
81.0700 52.1802
81.0800 53.3152
81.0900 56.3149
81.1000 61.3688
81.1100 58.9841
81.1200 44.9999
81.1300 54.9684
81.1400 58.1981
81.1500 42.7642
81.1600 52.8563
81.1700 54.3165
81.1800 54.4900
81.1900 60.1546
81.2000 40.3541
81.2100 44.2884
81.2200 54.5293
81.2300 45.1570
81.2400 50.8251
81.2500 51.0772
81.2600 51.4819
81.2700 61.2264
81.2800 51.7174
81.2900 51.7714
81.3000 52.5719
81.3100 58.9916
81.3200 43.9223
81.3300 40.7409
81.3400 49.6789
81.3500 54.1218
81.3600 53.4543
81.3700 51.8925
81.3800 50.3113
81.3900 52.4713
81.4000 52.0954
81.4100 58.7558
81.4200 50.5335
81.4300 53.6764
81.4400 46.0043
81.4500 58.1825
81.4600 35.3871
81.4700 60.8962
81.4800 54.0740
81.4900 48.2449
81.5000 72.1344
81.5100 66.1755
81.5200 45.9529
81.5300 52.0997
81.5400 43.6861
81.5500 55.0536
81.5600 42.2845
81.5700 51.6753
81.5800 51.2965
81.5900 59.1531
81.6000 54.3654
81.6100 44.0462
81.6200 48.8024
81.6300 57.7360
81.6400 54.3732
81.6500 60.0255
81.6600 62.6042
81.6700 52.9563
81.6800 58.3904
81.6900 42.2107
81.7000 45.8950
81.7100 45.1831
81.7200 50.0175
81.7300 61.1432
81.7400 56.6429
81.7500 52.5758
81.7600 47.9208
81.7700 55.6340
81.7800 49.8649
81.7900 49.8675
81.8000 44.3728
81.8100 40.7756
81.8200 52.7593
81.8300 51.5330
81.8400 57.5857
81.8500 54.3713
81.8600 49.1931
81.8700 54.2195
81.8800 54.4478
81.8900 50.3195
81.9000 51.8456
81.9100 46.0563
81.9200 38.9641
81.9300 52.4363
81.9400 46.9015
81.9500 51.0266
81.9600 47.5602
81.9700 53.5002
81.9800 49.0617
81.9900 53.7859
82.0000 54.2906
82.0100 51.8640
82.0200 46.5547
82.0300 59.7800
82.0400 53.3275
82.0500 52.7933
82.0600 47.3847
82.0700 58.9767
82.0800 57.5299
82.0900 42.3102
82.1000 44.3766
82.1100 47.8279
82.1200 48.1212
82.1300 60.5840
82.1400 61.3185
82.1500 61.4195
82.1600 60.2992
82.1700 59.3515
82.1800 64.1981
82.1900 54.7498
82.2000 51.6718
82.2100 66.7382
82.2200 60.3549
82.2300 50.2947
82.2400 51.7311
82.2500 51.7462
82.2600 57.2581
82.2700 52.4351
82.2800 49.6431
82.2900 58.4740
82.3000 52.4105
82.3100 52.9816
82.3200 48.3236
82.3300 52.2038
82.3400 60.4446
82.3500 52.8024
82.3600 48.2594
82.3700 49.8069
82.3800 53.6772
82.3900 50.2470
82.4000 49.8242
82.4100 48.5200
82.4200 51.3847
82.4300 45.2711
82.4400 42.7566
82.4500 35.0320
82.4600 43.4501
82.4700 57.1028
82.4800 40.4585
82.4900 55.7396
82.5000 50.4982
82.5100 50.0563
82.5200 51.3046
82.5300 51.8709
82.5400 48.1959
82.5500 50.7004
82.5600 42.3304
82.5700 40.9344
82.5800 57.7747
82.5900 51.6651
82.6000 65.9839
82.6100 69.4312
82.6200 55.6368
82.6300 44.1236
82.6400 46.3085
82.6500 55.2050
82.6600 57.2371
82.6700 49.2094
82.6800 52.1711
82.6900 43.7902
82.7000 47.2883
82.7100 59.1487
82.7200 46.8140
82.7300 49.1986
82.7400 61.2780
82.7500 60.5171
82.7600 73.4523
82.7700 49.3453
82.7800 46.6098
82.7900 58.8025
82.8000 52.1667
82.8100 52.2294
82.8200 61.4871
82.8300 67.2469
82.8400 59.1499
82.8500 37.0108
82.8600 44.5943
82.8700 68.4517
82.8800 60.2422
82.8900 54.3348
82.9000 46.5255
82.9100 35.5899
82.9200 49.6424
82.9300 47.5259
82.9400 59.6162
82.9500 51.9265
82.9600 52.1034
82.9700 50.9991
82.9800 61.4080
82.9900 53.3673
83.0000 45.6242
83.0100 51.3659
83.0200 55.5419
83.0300 53.5775
83.0400 48.1956
83.0500 37.2293
83.0600 59.8781
83.0700 42.2524
83.0800 49.1260
83.0900 46.5037
83.1000 52.5031
83.1100 42.3023
83.1200 50.8282
83.1300 46.8998
83.1400 58.3150
83.1500 50.3222
83.1600 55.5484
83.1700 47.7389
83.1800 60.7060
83.1900 55.3734
83.2000 56.7352
83.2100 53.0778
83.2200 59.1651
83.2300 51.2815
83.2400 44.4952
83.2500 47.7006
83.2600 49.7710
83.2700 55.9829
83.2800 55.1937
83.2900 48.5820
83.3000 50.3169
83.3100 50.7903
83.3200 39.4695
83.3300 50.4818
83.3400 54.2562
83.3500 59.8305
83.3600 44.0699
83.3700 59.8682
83.3800 49.5536
83.3900 41.3966
83.4000 55.1723
83.4100 45.5118
83.4200 52.1124
83.4300 48.9226
83.4400 47.0692
83.4500 51.8761
83.4600 47.5784
83.4700 52.4641
83.4800 48.3643
83.4900 51.6767
83.5000 50.8378
83.5100 55.2823
83.5200 54.8308
83.5300 43.9258
83.5400 53.8962
83.5500 53.7388
83.5600 44.7384
83.5700 51.6990
83.5800 51.6129
83.5900 58.8331
83.6000 55.8758
83.6100 64.8993
83.6200 42.7301
83.6300 44.8261
83.6400 55.4828
83.6500 49.7377
83.6600 55.4477
83.6700 45.6944
83.6800 46.4227
83.6900 51.0127
83.7000 45.0198
83.7100 48.2273
83.7200 47.9220
83.7300 49.8206
83.7400 45.8848
83.7500 51.2282
83.7600 59.2933
83.7700 52.1799
83.7800 55.3645
83.7900 39.1837
83.8000 53.6412
83.8100 54.9573
83.8200 63.7372
83.8300 54.9270
83.8400 58.8940
83.8500 64.9861
83.8600 40.1634
83.8700 43.0805
83.8800 63.5919
83.8900 51.0681
83.9000 48.2749
83.9100 51.9569
83.9200 54.3867
83.9300 44.8992
83.9400 57.7801
83.9500 50.1253
83.9600 47.7858
83.9700 53.0339
83.9800 51.9386
83.9900 48.7656
84.0000 60.9050
84.0100 48.6595
84.0200 48.6295
84.0300 54.2909
84.0400 41.4458
84.0500 54.7335
84.0600 57.2019
84.0700 52.5060
84.0800 57.5879
84.0900 53.5615
84.1000 55.2678
84.1100 45.8563
84.1200 56.4814
84.1300 49.3250
84.1400 58.0124
84.1500 56.3447
84.1600 54.1999
84.1700 45.2814
84.1800 47.2812
84.1900 55.3946
84.2000 51.3762
84.2100 48.8013
84.2200 49.8319
84.2300 48.0985
84.2400 56.7326
84.2500 54.7523
84.2600 46.7381
84.2700 44.9552
84.2800 52.0210
84.2900 45.2392
84.3000 48.0743
84.3100 51.2659
84.3200 41.6004
84.3300 53.2880
84.3400 48.0833
84.3500 46.1120
84.3600 53.8858
84.3700 41.9994
84.3800 49.6801
84.3900 49.4463
84.4000 53.4946
84.4100 50.0976
84.4200 47.9336
84.4300 63.3010
84.4400 71.3823
84.4500 46.5888
84.4600 46.4855
84.4700 43.9616
84.4800 42.7771
84.4900 44.2869
84.5000 41.4342
84.5100 49.8811
84.5200 44.5921
84.5300 54.1572
84.5400 46.0185
84.5500 42.2340
84.5600 40.9374
84.5700 54.8868
84.5800 41.8069
84.5900 48.1531
84.6000 57.4618
84.6100 47.8716
84.6200 49.0752
84.6300 56.5793
84.6400 50.5404
84.6500 47.1475
84.6600 40.7530
84.6700 55.4685
84.6800 39.5714
84.6900 51.8977
84.7000 42.8594
84.7100 49.5575
84.7200 44.9477
84.7300 41.2247
84.7400 47.2965
84.7500 56.6660
84.7600 48.6821
84.7700 49.6957
84.7800 46.7994
84.7900 55.7613
84.8000 47.9899
84.8100 45.2078
84.8200 43.4849
84.8300 47.9253
84.8400 51.6686
84.8500 44.3928
84.8600 53.5751
84.8700 55.0259
84.8800 49.4188
84.8900 39.4147
84.9000 44.5783
84.9100 50.9823
84.9200 52.7507
84.9300 43.4527
84.9400 45.7592
84.9500 45.0822
84.9600 52.5680
84.9700 49.9272
84.9800 42.5796
84.9900 47.0355
85.0000 59.1199
85.0100 56.8939
85.0200 44.9349
85.0300 51.1648
85.0400 47.9811
85.0500 48.0572
85.0600 45.7944
85.0700 53.8862
85.0800 63.0967
85.0900 32.9474
85.1000 39.1693
85.1100 45.6777
85.1200 57.4931
85.1300 44.0167
85.1400 51.1713
85.1500 46.5955
85.1600 46.6870
85.1700 46.4823
85.1800 47.7198
85.1900 62.4108
85.2000 44.2771
85.2100 52.8485
85.2200 42.5438
85.2300 50.3646
85.2400 47.7705
85.2500 42.4385
85.2600 50.9799
85.2700 47.1495
85.2800 46.0173
85.2900 47.7239
85.3000 51.6947
85.3100 41.7051
85.3200 38.1933
85.3300 42.9561
85.3400 43.8772
85.3500 44.8907
85.3600 45.9606
85.3700 38.5193
85.3800 43.0644
85.3900 46.0975
85.4000 48.3535
85.4100 59.3157
85.4200 40.4118
85.4300 39.7839
85.4400 46.7685
85.4500 55.9555
85.4600 60.3143
85.4700 53.7469
85.4800 44.2924
85.4900 49.6035
85.5000 58.0087
85.5100 60.9665
85.5200 52.3777
85.5300 46.8022
85.5400 39.7885
85.5500 43.6619
85.5600 55.4690
85.5700 50.8595
85.5800 51.4011
85.5900 37.0399
85.6000 45.9205
85.6100 51.6550
85.6200 52.8338
85.6300 46.9448
85.6400 39.0656
85.6500 48.7415
85.6600 47.9553
85.6700 46.0558
85.6800 48.2269
85.6900 51.3995
85.7000 39.7758
85.7100 50.6459
85.7200 44.8460
85.7300 45.3769
85.7400 44.8526
85.7500 55.9483
85.7600 41.0280
85.7700 44.4477
85.7800 51.5232
85.7900 44.2631
85.8000 61.7957
85.8100 42.1935
85.8200 40.4286
85.8300 54.3269
85.8400 47.2856
85.8500 51.2198
85.8600 59.2765
85.8700 58.3927
85.8800 52.6989
85.8900 40.9704
85.9000 41.1918
85.9100 47.5034
85.9200 42.0546
85.9300 49.3345
85.9400 49.8477
85.9500 55.5488
85.9600 44.2967
85.9700 47.5231
85.9800 34.1809
85.9900 44.5426
86.0000 36.5221
86.0100 56.1624
86.0200 48.2572
86.0300 52.1348
86.0400 37.1090
86.0500 56.6161
86.0600 45.8151
86.0700 44.7460
86.0800 42.6074
86.0900 39.2843
86.1000 41.8747
86.1100 38.8002
86.1200 44.4548
86.1300 41.5031
86.1400 44.0776
86.1500 55.9812
86.1600 51.9424
86.1700 43.1149
86.1800 55.4102
86.1900 42.2009
86.2000 52.1081
86.2100 58.0243
86.2200 44.9852
86.2300 50.2877
86.2400 52.0129
86.2500 54.0520
86.2600 45.0943
86.2700 49.0377
86.2800 45.9172
86.2900 52.6064
86.3000 47.6833
86.3100 54.3557
86.3200 62.2334
86.3300 48.3034
86.3400 42.2673
86.3500 52.2416
86.3600 62.2405
86.3700 49.1302
86.3800 55.2888
86.3900 49.2541
86.4000 47.8144
86.4100 50.2243
86.4200 47.4735
86.4300 45.0494
86.4400 51.4611
86.4500 58.0750
86.4600 59.1966
86.4700 41.4019
86.4800 54.0304
86.4900 59.2384
86.5000 43.3688
86.5100 42.0317
86.5200 50.3682
86.5300 56.2297
86.5400 52.6321
86.5500 46.7861
86.5600 48.7698
86.5700 51.1235
86.5800 50.1386
86.5900 38.6312
86.6000 52.8781
86.6100 51.9415
86.6200 41.5326
86.6300 62.3615
86.6400 53.1612
86.6500 54.1586
86.6600 60.9770
86.6700 56.9687
86.6800 57.1228
86.6900 55.2746
86.7000 47.4670
86.7100 51.7897
86.7200 39.6396
86.7300 44.4957
86.7400 56.7923
86.7500 44.5643
86.7600 46.4250
86.7700 44.4254
86.7800 51.3822
86.7900 55.2158
86.8000 52.7167
86.8100 53.7696
86.8200 41.2238
86.8300 47.9441
86.8400 52.6684
86.8500 47.1031
86.8600 61.0515
86.8700 43.3066
86.8800 50.1601
86.8900 49.4269
86.9000 47.1023
86.9100 53.8341
86.9200 45.1681
86.9300 57.5984
86.9400 50.6375
86.9500 45.5816
86.9600 55.5836
86.9700 46.2886
86.9800 45.6053
86.9900 55.0628
87.0000 49.1440
87.0100 35.0257
87.0200 45.4107
87.0300 72.0066
87.0400 52.7732
87.0500 43.1398
87.0600 48.4654
87.0700 59.4331
87.0800 52.0054
87.0900 61.7948
87.1000 46.3043
87.1100 44.3709
87.1200 44.1992
87.1300 49.8660
87.1400 51.7334
87.1500 52.1548
87.1600 44.6678
87.1700 50.0209
87.1800 48.8652
87.1900 55.3780
87.2000 38.8149
87.2100 54.2848
87.2200 56.7181
87.2300 51.7136
87.2400 47.3738
87.2500 43.5738
87.2600 45.3535
87.2700 40.3049
87.2800 51.0897
87.2900 50.1294
87.3000 46.4613
87.3100 40.1405
87.3200 38.7830
87.3300 42.4903
87.3400 46.4167
87.3500 50.5915
87.3600 43.2826
87.3700 56.8683
87.3800 46.6252
87.3900 50.4367
87.4000 44.1618
87.4100 46.9213
87.4200 51.6140
87.4300 45.0280
87.4400 39.5923
87.4500 39.9451
87.4600 47.0377
87.4700 43.5081
87.4800 45.6061
87.4900 47.3079
87.5000 46.4705
87.5100 41.2410
87.5200 41.0438
87.5300 56.0080
87.5400 52.8386
87.5500 42.4166
87.5600 52.6306
87.5700 47.0162
87.5800 58.7761
87.5900 51.8268
87.6000 61.6391
87.6100 47.7383
87.6200 43.4346
87.6300 58.9949
87.6400 44.1653
87.6500 43.5093
87.6600 53.1410
87.6700 55.0790
87.6800 45.2762
87.6900 40.3813
87.7000 52.8937
87.7100 43.8658
87.7200 48.7683
87.7300 47.5373
87.7400 46.1878
87.7500 34.6019
87.7600 48.4233
87.7700 46.8914
87.7800 53.5133
87.7900 49.9625
87.8000 43.0023
87.8100 38.4366
87.8200 59.5500
87.8300 50.9898
87.8400 48.9970
87.8500 46.7728
87.8600 45.6839
87.8700 41.7814
87.8800 45.6235
87.8900 50.7555
87.9000 42.7445
87.9100 42.6457
87.9200 38.8449
87.9300 39.8058
87.9400 51.3400
87.9500 49.0575
87.9600 53.4870
87.9700 57.6737
87.9800 49.2794
87.9900 42.3199
88.0000 50.3418
88.0100 52.3310
88.0200 45.5012
88.0300 48.9749
88.0400 53.7083
88.0500 50.8795
88.0600 45.6368
88.0700 46.6664
88.0800 44.1486
88.0900 50.2925
88.1000 46.1055
88.1100 46.5337
88.1200 51.8899
88.1300 49.7057
88.1400 43.1308
88.1500 45.2448
88.1600 58.4851
88.1700 48.5870
88.1800 47.8126
88.1900 54.6245
88.2000 50.2265
88.2100 50.7989
88.2200 46.0455
88.2300 45.4945
88.2400 60.5531
88.2500 42.9197
88.2600 40.7978
88.2700 54.1472
88.2800 52.2790
88.2900 48.8154
88.3000 59.7944
88.3100 54.0548
88.3200 49.7576
88.3300 49.8115
88.3400 52.5306
88.3500 57.9344
88.3600 48.1956
88.3700 59.6944
88.3800 55.2372
88.3900 53.1429
88.4000 51.7243
88.4100 47.3591
88.4200 58.9729
88.4300 44.3636
88.4400 48.5054
88.4500 42.0935
88.4600 63.3151
88.4700 40.4174
88.4800 48.7477
88.4900 48.6224
88.5000 54.5881
88.5100 52.5681
88.5200 53.5839
88.5300 53.9656
88.5400 47.6549
88.5500 54.8027
88.5600 50.4006
88.5700 49.1004
88.5800 46.1937
88.5900 51.5100
88.6000 53.4410
88.6100 39.8658
88.6200 44.6594
88.6300 48.2870
88.6400 48.0212
88.6500 43.5164
88.6600 48.1680
88.6700 44.9788
88.6800 48.1484
88.6900 49.1221
88.7000 46.3521
88.7100 51.1625
88.7200 40.6821
88.7300 46.2738
88.7400 51.4184
88.7500 46.1276
88.7600 47.5994
88.7700 44.2562
88.7800 52.8742
88.7900 38.0647
88.8000 38.0849
88.8100 40.1343
88.8200 55.6697
88.8300 36.9892
88.8400 48.8064
88.8500 44.0249
88.8600 47.8541
88.8700 54.0920
88.8800 50.0253
88.8900 48.0440
88.9000 46.5512
88.9100 44.2872
88.9200 47.3494
88.9300 54.5357
88.9400 50.5664
88.9500 41.4882
88.9600 50.3669
88.9700 38.9366
88.9800 43.6649
88.9900 63.8152
89.0000 46.3124
89.0100 56.9280
89.0200 38.3498
89.0300 51.6093
89.0400 46.4845
89.0500 46.2549
89.0600 44.8784
89.0700 42.1909
89.0800 35.9395
89.0900 46.2839
89.1000 52.0251
89.1100 51.5088
89.1200 54.8887
89.1300 48.8557
89.1400 49.9737
89.1500 57.0140
89.1600 52.4784
89.1700 53.2554
89.1800 45.9247
89.1900 45.2869
89.2000 50.8613
89.2100 44.5038
89.2200 49.3507
89.2300 41.7055
89.2400 45.2022
89.2500 44.8341
89.2600 44.6736
89.2700 52.0489
89.2800 47.7264
89.2900 43.0776
89.3000 45.6012
89.3100 49.4567
89.3200 46.7990
89.3300 51.3521
89.3400 37.9193
89.3500 54.2890
89.3600 49.0449
89.3700 38.3276
89.3800 53.2325
89.3900 49.0477
89.4000 53.5524
89.4100 47.7212
89.4200 56.8022
89.4300 50.9171
89.4400 50.3637
89.4500 56.0632
89.4600 51.9670
89.4700 42.2505
89.4800 50.9947
89.4900 37.0916
89.5000 41.3709
89.5100 47.2798
89.5200 48.3597
89.5300 47.2303
89.5400 51.6290
89.5500 53.6810
89.5600 49.9167
89.5700 50.3871
89.5800 59.2457
89.5900 51.6807
89.6000 50.4154
89.6100 39.5368
89.6200 48.4240
89.6300 56.7841
89.6400 51.7681
89.6500 50.0214
89.6600 45.7488
89.6700 54.8903
89.6800 54.3155
89.6900 46.4981
89.7000 44.1397
89.7100 53.2603
89.7200 55.1054
89.7300 49.7883
89.7400 52.6890
89.7500 51.9131
89.7600 41.2185
89.7700 55.3115
89.7800 60.1095
89.7900 51.7705
89.8000 36.8231
89.8100 58.3897
89.8200 47.3369
89.8300 41.3369
89.8400 52.5051
89.8500 59.7167
89.8600 41.0536
89.8700 61.1625
89.8800 36.0229
89.8900 38.0008
89.9000 46.5307
89.9100 49.3059
89.9200 55.5719
89.9300 49.0922
89.9400 47.6672
89.9500 44.9646
89.9600 43.8184
89.9700 40.2259
89.9800 37.6662
89.9900 53.3542
90.0000 62.5439
90.0100 41.0701
90.0200 49.0329
90.0300 51.9505
90.0400 47.9477
90.0500 35.0191
90.0600 36.5498
90.0700 42.8766
90.0800 48.7347
90.0900 37.5128
90.1000 59.0304
90.1100 44.5777
90.1200 49.4763
90.1300 45.1005
90.1400 53.4908
90.1500 43.5717
90.1600 51.2148
90.1700 50.9517
90.1800 42.2862
90.1900 45.2359
90.2000 48.0585
90.2100 45.5086
90.2200 48.8940
90.2300 49.4550
90.2400 47.6717
90.2500 43.8238
90.2600 45.9297
90.2700 51.4765
90.2800 44.7252
90.2900 38.6552
90.3000 46.0027
90.3100 42.9984
90.3200 47.4238
90.3300 54.0480
90.3400 47.6745
90.3500 44.3577
90.3600 45.4455
90.3700 48.6882
90.3800 52.0952
90.3900 44.3537
90.4000 52.8355
90.4100 39.3483
90.4200 48.7317
90.4300 40.1934
90.4400 48.1421
90.4500 53.5055
90.4600 63.6722
90.4700 51.7099
90.4800 46.5913
90.4900 52.1433
90.5000 52.4934
90.5100 35.1732
90.5200 51.4104
90.5300 47.7861
90.5400 47.3265
90.5500 48.6824
90.5600 50.2300
90.5700 51.3830
90.5800 39.4896
90.5900 44.4099
90.6000 63.3866
90.6100 39.4911
90.6200 46.8369
90.6300 46.3321
90.6400 59.8266
90.6500 55.1165
90.6600 48.9855
90.6700 54.1117
90.6800 43.1206
90.6900 37.4018
90.7000 44.1922
90.7100 52.4748
90.7200 35.7624
90.7300 39.5556
90.7400 48.7307
90.7500 63.3053
90.7600 44.7550
90.7700 42.6865
90.7800 53.3765
90.7900 47.1453
90.8000 53.4248
90.8100 44.9058
90.8200 49.4974
90.8300 49.9260
90.8400 40.2460
90.8500 51.0465
90.8600 52.5116
90.8700 48.0310
90.8800 62.5635
90.8900 40.6080
90.9000 40.8363
90.9100 40.4976
90.9200 46.0446
90.9300 60.8385
90.9400 48.8919
90.9500 49.2902
90.9600 44.4966
90.9700 56.0685
90.9800 49.3254
90.9900 52.1280
91.0000 43.0627
91.0100 59.2084
91.0200 51.2513
91.0300 52.1727
91.0400 43.0246
91.0500 47.1523
91.0600 57.3735
91.0700 45.4545
91.0800 52.9308
91.0900 46.4212
91.1000 49.5016
91.1100 61.0260
91.1200 51.5750
91.1300 46.0509
91.1400 44.1998
91.1500 46.0553
91.1600 42.4378
91.1700 54.2413
91.1800 43.3548
91.1900 43.5116
91.2000 50.0136
91.2100 44.0422
91.2200 49.7478
91.2300 49.5690
91.2400 44.6925
91.2500 49.1141
91.2600 60.6633
91.2700 49.4932
91.2800 42.1886
91.2900 49.1719
91.3000 41.6924
91.3100 46.8193
91.3200 57.6169
91.3300 57.4701
91.3400 59.6908
91.3500 57.3819
91.3600 54.9243
91.3700 43.9673
91.3800 42.1355
91.3900 57.9546
91.4000 47.6968
91.4100 45.0799
91.4200 57.2974
91.4300 51.8972
91.4400 40.3867
91.4500 57.5581
91.4600 51.7918
91.4700 53.1465
91.4800 54.9885
91.4900 41.2209
91.5000 43.4431
91.5100 45.7627
91.5200 47.3796
91.5300 52.3332
91.5400 47.9463
91.5500 49.7554
91.5600 49.0789
91.5700 51.2141
91.5800 54.9310
91.5900 36.2215
91.6000 51.4591
91.6100 43.8119
91.6200 39.3020
91.6300 39.6182
91.6400 45.9648
91.6500 50.2502
91.6600 63.4424
91.6700 49.1889
91.6800 45.2160
91.6900 44.6258
91.7000 47.5372
91.7100 46.6784
91.7200 48.2092
91.7300 44.7234
91.7400 52.0259
91.7500 44.5510
91.7600 37.0104
91.7700 32.5832
91.7800 51.3898
91.7900 54.0724
91.8000 50.1627
91.8100 53.0328
91.8200 53.5369
91.8300 45.7964
91.8400 44.5434
91.8500 46.4164
91.8600 46.9321
91.8700 44.6276
91.8800 49.5944
91.8900 50.5151
91.9000 47.5284
91.9100 54.2207
91.9200 44.5772
91.9300 43.0166
91.9400 36.8601
91.9500 53.1685
91.9600 40.6260
91.9700 46.7038
91.9800 57.1609
91.9900 47.8030
92.0000 56.2951
92.0100 48.5940
92.0200 56.0438
92.0300 53.8848
92.0400 56.2654
92.0500 53.5101
92.0600 55.6154
92.0700 44.2347
92.0800 49.4304
92.0900 57.0804
92.1000 49.3434
92.1100 44.7626
92.1200 56.1141
92.1300 37.4280
92.1400 45.2210
92.1500 42.6717
92.1600 44.3322
92.1700 50.9064
92.1800 48.6525
92.1900 44.7746
92.2000 44.4644
92.2100 43.9280
92.2200 51.6593
92.2300 55.6553
92.2400 47.7533
92.2500 49.7509
92.2600 49.2219
92.2700 47.6335
92.2800 45.7673
92.2900 64.3066
92.3000 52.6457
92.3100 47.4783
92.3200 45.6755
92.3300 51.5630
92.3400 42.0378
92.3500 47.0193
92.3600 52.8581
92.3700 53.6283
92.3800 57.6315
92.3900 48.0235
92.4000 38.6487
92.4100 47.6361
92.4200 51.5014
92.4300 49.1731
92.4400 55.2906
92.4500 50.7444
92.4600 54.9887
92.4700 52.4387
92.4800 48.2005
92.4900 48.4873
92.5000 59.8192
92.5100 49.3519
92.5200 41.2325
92.5300 49.3094
92.5400 51.3178
92.5500 51.3222
92.5600 43.1190
92.5700 41.2670
92.5800 36.9584
92.5900 47.9370
92.6000 47.8637
92.6100 48.3193
92.6200 44.4500
92.6300 50.4918
92.6400 44.6575
92.6500 59.6354
92.6600 52.7928
92.6700 50.9127
92.6800 53.8395
92.6900 53.3605
92.7000 46.9181
92.7100 49.3465
92.7200 50.0648
92.7300 49.3208
92.7400 49.3920
92.7500 49.9133
92.7600 40.6916
92.7700 39.0860
92.7800 42.5804
92.7900 42.8922
92.8000 36.3518
92.8100 39.3978
92.8200 55.0411
92.8300 51.2085
92.8400 50.0766
92.8500 49.4388
92.8600 61.0613
92.8700 34.3881
92.8800 46.8602
92.8900 55.5085
92.9000 49.5841
92.9100 57.0183
92.9200 35.6550
92.9300 55.5002
92.9400 57.7135
92.9500 60.6367
92.9600 47.4479
92.9700 41.1308
92.9800 61.6645
92.9900 51.2390
93.0000 51.9483
93.0100 48.1572
93.0200 55.6825
93.0300 58.7314
93.0400 53.2729
93.0500 50.4568
93.0600 48.8362
93.0700 45.0057
93.0800 63.8042
93.0900 48.4745
93.1000 57.8010
93.1100 48.9304
93.1200 41.3599
93.1300 52.7204
93.1400 51.1713
93.1500 43.9641
93.1600 47.2358
93.1700 51.8256
93.1800 44.3973
93.1900 52.3647
93.2000 42.5115
93.2100 47.4579
93.2200 39.6292
93.2300 44.2066
93.2400 46.6242
93.2500 37.6071
93.2600 61.0074
93.2700 47.8786
93.2800 48.9800
93.2900 52.2815
93.3000 50.7951
93.3100 53.5903
93.3200 40.2527
93.3300 54.7960
93.3400 57.1776
93.3500 47.9893
93.3600 56.5445
93.3700 53.5259
93.3800 54.9515
93.3900 47.8719
93.4000 47.4493
93.4100 42.9257
93.4200 38.9518
93.4300 50.1602
93.4400 57.9084
93.4500 63.4113
93.4600 47.6082
93.4700 41.8877
93.4800 53.5836
93.4900 49.6137
93.5000 47.1466
93.5100 45.0389
93.5200 52.0864
93.5300 49.2802
93.5400 49.3069
93.5500 53.7182
93.5600 40.6655
93.5700 52.4157
93.5800 48.3585
93.5900 52.2868
93.6000 46.0701
93.6100 42.1681
93.6200 54.4650
93.6300 49.5023
93.6400 45.3623
93.6500 54.3414
93.6600 48.7832
93.6700 55.3244
93.6800 53.7049
93.6900 45.6460
93.7000 42.9969
93.7100 61.8986
93.7200 62.7256
93.7300 49.9975
93.7400 48.0134
93.7500 49.4522
93.7600 61.6599
93.7700 54.0293
93.7800 42.6768
93.7900 37.8426
93.8000 45.4277
93.8100 39.7172
93.8200 49.1843
93.8300 53.8601
93.8400 51.0419
93.8500 54.1793
93.8600 47.6519
93.8700 43.6651
93.8800 54.1729
93.8900 54.0356
93.9000 57.5597
93.9100 46.7450
93.9200 54.2250
93.9300 50.9565
93.9400 50.8102
93.9500 48.7388
93.9600 50.6341
93.9700 41.7192
93.9800 45.1861
93.9900 37.9641
94.0000 41.9088
94.0100 58.3886
94.0200 53.2610
94.0300 56.1890
94.0400 37.8428
94.0500 44.5712
94.0600 61.9412
94.0700 60.7275
94.0800 49.4552
94.0900 36.9694
94.1000 45.2388
94.1100 53.1186
94.1200 45.1111
94.1300 47.1157
94.1400 37.8945
94.1500 58.5245
94.1600 45.0901
94.1700 46.6524
94.1800 47.1367
94.1900 42.2665
94.2000 53.2683
94.2100 49.7692
94.2200 52.4150
94.2300 45.8391
94.2400 50.2371
94.2500 48.3244
94.2600 43.2297
94.2700 56.4349
94.2800 45.8886
94.2900 54.5492
94.3000 52.2772
94.3100 41.0506
94.3200 43.0776
94.3300 40.8784
94.3400 60.1664
94.3500 61.8235
94.3600 46.6040
94.3700 54.2143
94.3800 63.6099
94.3900 53.6151
94.4000 45.3305
94.4100 41.5352
94.4200 44.5471
94.4300 40.6013
94.4400 69.5506
94.4500 47.4772
94.4600 39.2081
94.4700 55.3156
94.4800 50.1267
94.4900 37.2851
94.5000 66.0441
94.5100 60.9260
94.5200 40.8493
94.5300 46.7256
94.5400 46.3892
94.5500 36.1375
94.5600 39.2896
94.5700 46.5487
94.5800 52.1347
94.5900 51.9925
94.6000 49.4928
94.6100 41.6422
94.6200 43.5615
94.6300 52.2514
94.6400 39.5612
94.6500 47.3329
94.6600 39.7454
94.6700 58.9960
94.6800 51.0342
94.6900 40.3359
94.7000 45.4031
94.7100 42.9607
94.7200 61.0099
94.7300 53.6906
94.7400 43.4318
94.7500 49.6127
94.7600 41.7857
94.7700 47.6601
94.7800 50.2963
94.7900 46.6716
94.8000 52.4487
94.8100 54.2157
94.8200 54.4354
94.8300 44.6389
94.8400 44.5081
94.8500 36.4182
94.8600 47.4543
94.8700 54.8630
94.8800 55.4837
94.8900 48.6001
94.9000 66.8694
94.9100 56.1037
94.9200 68.3831
94.9300 52.0417
94.9400 39.7202
94.9500 57.0533
94.9600 45.9892
94.9700 42.0853
94.9800 40.0756
94.9900 42.7032
95.0000 50.3890
95.0100 60.9005
95.0200 54.2302
95.0300 52.7206
95.0400 52.3228
95.0500 56.2236
95.0600 62.8183
95.0700 47.2050
95.0800 42.2746
95.0900 48.7552
95.1000 52.0210
95.1100 50.7248
95.1200 45.0214
95.1300 53.9635
95.1400 42.0513
95.1500 38.7150
95.1600 46.0858
95.1700 46.4206
95.1800 52.1356
95.1900 52.4360
95.2000 44.4122
95.2100 44.3051
95.2200 53.1337
95.2300 42.0051
95.2400 44.8809
95.2500 58.6829
95.2600 55.4690
95.2700 43.3109
95.2800 54.1297
95.2900 59.9151
95.3000 44.9377
95.3100 50.1470
95.3200 55.2903
95.3300 36.4356
95.3400 53.7305
95.3500 55.5786
95.3600 42.9518
95.3700 55.6240
95.3800 49.1323
95.3900 43.3003
95.4000 43.3362
95.4100 46.6361
95.4200 46.3556
95.4300 55.1435
95.4400 52.3883
95.4500 36.4545
95.4600 51.2268
95.4700 49.1478
95.4800 52.0311
95.4900 50.0723
95.5000 46.4809
95.5100 45.4315
95.5200 55.1309
95.5300 59.5522
95.5400 55.4216
95.5500 51.1931
95.5600 43.0913
95.5700 43.8826
95.5800 52.8966
95.5900 38.6521
95.6000 47.1900
95.6100 60.1753
95.6200 40.3363
95.6300 41.1224
95.6400 52.2122
95.6500 55.3836
95.6600 56.4246
95.6700 50.7916
95.6800 57.9843
95.6900 49.1380
95.7000 47.0108
95.7100 45.3347
95.7200 57.6283
95.7300 43.5403
95.7400 44.1033
95.7500 46.5906
95.7600 44.3077
95.7700 60.5909
95.7800 55.3563
95.7900 62.5571
95.8000 56.2950
95.8100 48.2624
95.8200 52.2732
95.8300 49.8788
95.8400 63.6763
95.8500 48.5209
95.8600 60.5133
95.8700 55.0800
95.8800 42.8697
95.8900 44.2612
95.9000 47.2161
95.9100 53.1992
95.9200 56.4410
95.9300 54.4128
95.9400 62.8140
95.9500 49.2846
95.9600 45.5245
95.9700 41.8056
95.9800 47.5667
95.9900 54.1989
96.0000 47.9626
96.0100 52.8750
96.0200 48.3438
96.0300 55.5932
96.0400 45.6113
96.0500 46.6940
96.0600 57.7689
96.0700 52.7281
96.0800 43.5864
96.0900 55.1263
96.1000 48.9161
96.1100 54.9240
96.1200 56.2012
96.1300 47.7906
96.1400 41.1808
96.1500 56.5125
96.1600 48.5445
96.1700 51.4277
96.1800 57.4170
96.1900 55.8195
96.2000 57.3505
96.2100 62.2480
96.2200 54.9670
96.2300 54.0268
96.2400 52.5182
96.2500 48.0838
96.2600 42.2212
96.2700 58.6515
96.2800 47.6584
96.2900 43.5873
96.3000 51.4690
96.3100 44.4737
96.3200 53.2520
96.3300 59.2267
96.3400 44.8169
96.3500 54.6394
96.3600 45.3366
96.3700 51.7580
96.3800 46.7596
96.3900 58.7633
96.4000 54.1212
96.4100 52.9963
96.4200 60.5806
96.4300 60.3781
96.4400 57.6679
96.4500 54.7961
96.4600 44.9721
96.4700 53.8473
96.4800 61.5679
96.4900 54.6315
96.5000 52.9773
96.5100 55.4541
96.5200 67.3474
96.5300 46.7564
96.5400 47.2243
96.5500 63.4994
96.5600 53.1139
96.5700 61.2788
96.5800 46.4340
96.5900 37.7591
96.6000 51.5756
96.6100 49.1264
96.6200 65.9880
96.6300 44.7838
96.6400 53.3254
96.6500 58.6633
96.6600 55.3230
96.6700 43.3912
96.6800 50.1997
96.6900 55.5420
96.7000 62.0369
96.7100 64.0876
96.7200 46.0343
96.7300 52.8663
96.7400 53.0939
96.7500 49.3311
96.7600 54.1741
96.7700 52.6368
96.7800 50.0310
96.7900 47.3459
96.8000 48.3085
96.8100 46.2510
96.8200 50.1782
96.8300 61.1992
96.8400 45.7480
96.8500 47.0303
96.8600 54.3952
96.8700 45.0493
96.8800 45.9751
96.8900 44.3293
96.9000 49.1628
96.9100 45.6611
96.9200 52.4976
96.9300 52.6082
96.9400 53.3097
96.9500 51.1666
96.9600 44.0962
96.9700 70.6792
96.9800 42.9348
96.9900 42.9245
97.0000 49.4167
97.0100 52.6820
97.0200 55.4328
97.0300 52.5009
97.0400 46.0799
97.0500 43.9096
97.0600 52.4795
97.0700 53.2450
97.0800 72.0377
97.0900 44.2363
97.1000 52.1107
97.1100 42.0406
97.1200 43.5459
97.1300 52.8039
97.1400 47.3585
97.1500 50.4176
97.1600 55.1982
97.1700 49.5844
97.1800 48.5075
97.1900 47.9895
97.2000 55.9123
97.2100 44.6808
97.2200 52.9028
97.2300 56.6748
97.2400 47.8167
97.2500 48.4449
97.2600 42.4339
97.2700 49.1851
97.2800 46.0225
97.2900 47.2680
97.3000 66.9938
97.3100 63.3560
97.3200 53.4494
97.3300 60.2420
97.3400 34.9494
97.3500 45.6096
97.3600 53.7773
97.3700 48.8614
97.3800 58.5745
97.3900 44.3355
97.4000 58.0597
97.4100 52.7440
97.4200 46.2248
97.4300 44.8762
97.4400 46.0172
97.4500 49.2224
97.4600 48.4601
97.4700 53.4358
97.4800 50.4686
97.4900 56.8169
97.5000 48.3223
97.5100 55.9197
97.5200 49.7207
97.5300 43.1221
97.5400 57.3289
97.5500 46.7130
97.5600 53.5217
97.5700 59.6392
97.5800 44.3656
97.5900 48.3340
97.6000 44.0602
97.6100 58.9419
97.6200 43.4035
97.6300 45.2036
97.6400 54.4981
97.6500 53.7990
97.6600 42.5459
97.6700 56.6337
97.6800 52.6011
97.6900 59.6950
97.7000 42.5515
97.7100 50.3999
97.7200 56.5204
97.7300 54.7267
97.7400 47.2889
97.7500 50.4386
97.7600 45.8331
97.7700 47.0512
97.7800 45.6597
97.7900 61.3583
97.8000 53.8296
97.8100 55.5367
97.8200 50.7543
97.8300 52.2633
97.8400 52.0459
97.8500 49.7915
97.8600 59.9676
97.8700 54.5498
97.8800 61.6847
97.8900 54.1458
97.9000 47.7107
97.9100 56.5940
97.9200 52.5871
97.9300 53.9535
97.9400 54.4467
97.9500 57.3299
97.9600 52.6641
97.9700 64.8545
97.9800 58.2298
97.9900 55.0533
98.0000 43.8688
98.0100 49.8031
98.0200 66.1546
98.0300 54.0331
98.0400 58.8176
98.0500 56.4335
98.0600 50.9107
98.0700 53.0103
98.0800 52.7203
98.0900 50.9695
98.1000 47.8290
98.1100 57.2250
98.1200 45.3846
98.1300 46.9616
98.1400 52.7130
98.1500 51.3839
98.1600 53.1357
98.1700 50.4678
98.1800 53.2186
98.1900 57.7761
98.2000 60.6260
98.2100 64.4860
98.2200 58.1035
98.2300 66.6145
98.2400 53.1209
98.2500 62.5496
98.2600 52.2863
98.2700 46.1618
98.2800 50.7333
98.2900 44.9200
98.3000 45.8833
98.3100 43.2977
98.3200 58.5953
98.3300 45.9331
98.3400 61.3055
98.3500 43.0527
98.3600 52.2284
98.3700 49.0729
98.3800 40.3927
98.3900 47.7414
98.4000 60.9905
98.4100 51.6647
98.4200 47.4092
98.4300 43.7483
98.4400 53.3505
98.4500 53.0951
98.4600 49.6452
98.4700 57.3333
98.4800 49.4733
98.4900 44.5312
98.5000 51.3041
98.5100 59.6370
98.5200 51.3255
98.5300 57.7894
98.5400 57.6231
98.5500 52.8762
98.5600 48.4623
98.5700 62.1367
98.5800 50.2195
98.5900 50.1576
98.6000 52.7116
98.6100 46.1279
98.6200 45.3888
98.6300 53.9611
98.6400 57.3366
98.6500 58.4340
98.6600 49.5561
98.6700 60.7106
98.6800 59.7523
98.6900 50.0196
98.7000 44.6987
98.7100 39.3497
98.7200 54.1097
98.7300 57.2635
98.7400 54.6208
98.7500 52.6065
98.7600 55.1518
98.7700 44.3364
98.7800 47.7567
98.7900 53.2282
98.8000 59.2148
98.8100 56.6907
98.8200 56.0465
98.8300 61.0342
98.8400 45.9188
98.8500 46.6594
98.8600 51.1065
98.8700 57.0415
98.8800 50.0338
98.8900 52.3045
98.9000 53.5601
98.9100 50.7533
98.9200 54.4599
98.9300 62.9000
98.9400 51.0852
98.9500 60.2751
98.9600 61.1760
98.9700 48.6242
98.9800 42.7084
98.9900 53.4582
99.0000 52.1743
99.0100 49.6172
99.0200 46.5467
99.0300 54.5005
99.0400 45.8855
99.0500 49.5000
99.0600 42.5236
99.0700 57.9556
99.0800 63.9287
99.0900 50.8400
99.1000 52.8323
99.1100 44.8044
99.1200 47.3489
99.1300 44.8163
99.1400 45.1151
99.1500 50.8806
99.1600 49.5783
99.1700 50.1279
99.1800 48.3370
99.1900 38.5460
99.2000 42.6453
99.2100 58.5462
99.2200 48.7967
99.2300 47.3131
99.2400 51.4254
99.2500 54.8816
99.2600 51.6210
99.2700 50.6893
99.2800 49.6183
99.2900 53.9673
99.3000 50.9738
99.3100 45.7409
99.3200 50.6276
99.3300 60.1548
99.3400 65.8101
99.3500 56.1471
99.3600 48.4368
99.3700 56.7666
99.3800 51.2699
99.3900 31.6452
99.4000 44.7901
99.4100 50.9063
99.4200 53.7158
99.4300 45.2614
99.4400 59.1119
99.4500 60.5495
99.4600 61.9750
99.4700 58.4358
99.4800 60.4913
99.4900 47.6257
99.5000 55.4981
99.5100 54.3082
99.5200 63.0761
99.5300 55.7010
99.5400 55.5358
99.5500 61.3719
99.5600 60.3160
99.5700 61.5785
99.5800 55.5111
99.5900 58.1017
99.6000 50.4925
99.6100 57.6554
99.6200 46.0178
99.6300 48.0648
99.6400 57.8812
99.6500 40.7474
99.6600 61.2787
99.6700 60.7037
99.6800 52.7996
99.6900 63.8835
99.7000 55.0091
99.7100 49.1114
99.7200 55.8688
99.7300 52.8041
99.7400 43.0094
99.7500 54.4674
99.7600 54.7275
99.7700 58.0799
99.7800 49.4795
99.7900 55.4331
99.8000 51.6878
99.8100 49.3696
99.8200 58.4773
99.8300 64.2242
99.8400 56.3328
99.8500 47.4002
99.8600 43.0909
99.8700 59.0093
99.8800 58.3174
99.8900 43.3911
99.9000 58.9064
99.9100 61.5423
99.9200 59.8684
99.9300 46.4343
99.9400 55.7708
99.9500 55.2812
99.9600 49.4374
99.9700 38.7033
99.9800 50.8071
99.9900 55.9307
100.0000 47.6550
100.0100 45.5209
100.0200 49.9791
100.0300 49.9654
100.0400 39.2481
100.0500 41.3338
100.0600 56.2904
100.0700 55.5555
100.0800 42.9946
100.0900 48.9060
100.1000 45.4853
100.1100 42.0040
100.1200 52.4366
100.1300 42.8328
100.1400 51.7510
100.1500 51.0661
100.1600 45.6426
100.1700 45.0225
100.1800 50.1310
100.1900 54.8719
100.2000 47.6721
100.2100 46.0958
100.2200 50.2333
100.2300 59.3438
100.2400 57.4843
100.2500 57.9890
100.2600 48.6790
100.2700 48.4302
100.2800 54.0884
100.2900 55.8633
100.3000 59.6742
100.3100 59.0522
100.3200 47.3043
100.3300 52.8281
100.3400 55.5221
100.3500 61.6170
100.3600 58.3100
100.3700 63.0517
100.3800 50.3980
100.3900 47.2238
100.4000 46.7022
100.4100 52.3627
100.4200 45.4087
100.4300 38.2045
100.4400 47.8341
100.4500 45.2715
100.4600 42.8991
100.4700 54.4714
100.4800 49.4409
100.4900 45.4430
100.5000 39.7331
100.5100 48.1449
100.5200 47.1417
100.5300 55.4861
100.5400 50.4318
100.5500 65.6867
100.5600 51.8606
100.5700 50.3597
100.5800 42.6869
100.5900 53.0064
100.6000 54.1389
100.6100 46.8025
100.6200 45.6970
100.6300 42.5677
100.6400 49.9762
100.6500 45.0034
100.6600 59.5746
100.6700 59.3772
100.6800 52.5213
100.6900 59.4402
100.7000 58.4074
100.7100 48.4969
100.7200 46.2813
100.7300 55.7005
100.7400 52.8036
100.7500 59.4356
100.7600 57.1386
100.7700 51.6868
100.7800 59.2352
100.7900 48.0596
100.8000 45.5184
100.8100 49.0464
100.8200 43.9639
100.8300 47.1686
100.8400 47.2596
100.8500 51.8592
100.8600 48.2347
100.8700 55.6642
100.8800 52.0349
100.8900 41.7693
100.9000 48.8224
100.9100 56.4548
100.9200 52.3077
100.9300 48.9088
100.9400 45.2081
100.9500 52.1253
100.9600 43.9654
100.9700 35.6539
100.9800 48.9397
100.9900 46.7526
101.0000 58.8789
101.0100 50.4856
101.0200 47.4750
101.0300 53.5074
101.0400 37.1663
101.0500 64.8293
101.0600 49.9044
101.0700 49.1903
101.0800 52.8446
101.0900 45.0412
101.1000 54.7817
101.1100 50.1880
101.1200 57.9963
101.1300 48.5889
101.1400 44.9668
101.1500 52.7016
101.1600 50.9344
101.1700 53.3695
101.1800 44.0951
101.1900 55.7732
101.2000 44.1480
101.2100 41.4006
101.2200 51.4670
101.2300 53.2391
101.2400 48.1654
101.2500 43.7213
101.2600 46.7190
101.2700 46.2429
101.2800 49.2517
101.2900 52.0152
101.3000 48.5002
101.3100 48.2527
101.3200 42.7749
101.3300 46.7898
101.3400 48.5363
101.3500 50.8793
101.3600 47.1417
101.3700 46.3273
101.3800 48.7685
101.3900 47.1639
101.4000 39.6472
101.4100 42.7404
101.4200 47.4326
101.4300 45.4047
101.4400 48.4298
101.4500 53.0055
101.4600 53.7842
101.4700 63.5711
101.4800 48.1030
101.4900 52.5772
101.5000 47.3876
101.5100 52.4102
101.5200 44.8533
101.5300 56.3617
101.5400 49.9838
101.5500 51.2272
101.5600 46.9056
101.5700 48.6572
101.5800 53.7235
101.5900 56.6013
101.6000 55.9026
101.6100 59.9407
101.6200 45.3604
101.6300 57.9523
101.6400 54.7810
101.6500 46.6591
101.6600 53.6320
101.6700 50.6474
101.6800 60.4383
101.6900 61.2741
101.7000 61.3376
101.7100 51.6918
101.7200 64.1222
101.7300 61.7540
101.7400 52.2908
101.7500 56.5683
101.7600 39.6644
101.7700 44.9421
101.7800 52.7431
101.7900 54.9571
101.8000 47.0331
101.8100 50.1734
101.8200 46.5591
101.8300 40.8435
101.8400 54.1118
101.8500 47.5872
101.8600 43.8318
101.8700 62.6472
101.8800 50.1740
101.8900 45.1403
101.9000 52.5022
101.9100 47.4139
101.9200 51.6456
101.9300 49.2969
101.9400 51.5527
101.9500 46.2000
101.9600 49.5739
101.9700 53.2799
101.9800 54.7087
101.9900 49.7951
102.0000 49.5669
102.0100 39.9351
102.0200 40.2500
102.0300 44.2216
102.0400 60.7633
102.0500 48.2113
102.0600 52.9420
102.0700 40.7284
102.0800 51.9584
102.0900 41.3913
102.1000 40.9015
102.1100 42.8310
102.1200 39.8162
102.1300 44.1778
102.1400 55.4003
102.1500 39.0691
102.1600 59.5601
102.1700 49.5757
102.1800 57.0871
102.1900 51.8454
102.2000 48.3299
102.2100 50.5353
102.2200 65.3920
102.2300 59.6540
102.2400 46.3661
102.2500 52.1908
102.2600 44.8447
102.2700 49.5485
102.2800 52.9234
102.2900 57.2831
102.3000 48.2348
102.3100 41.8918
102.3200 53.3188
102.3300 60.9568
102.3400 52.4860
102.3500 52.3053
102.3600 42.7595
102.3700 54.0849
102.3800 49.7513
102.3900 47.4955
102.4000 41.2982
102.4100 56.7351
102.4200 65.9589
102.4300 55.5296
102.4400 59.8956
102.4500 58.2605
102.4600 51.1232
102.4700 60.7283
102.4800 49.2203
102.4900 58.9831
102.5000 47.4241
102.5100 48.5183
102.5200 48.5357
102.5300 50.2486
102.5400 57.3914
102.5500 55.2535
102.5600 44.1644
102.5700 64.5001
102.5800 50.7451
102.5900 54.1065
102.6000 45.4590
102.6100 52.3287
102.6200 48.5924
102.6300 47.7327
102.6400 59.8576
102.6500 46.2760
102.6600 49.5123
102.6700 55.7183
102.6800 56.8360
102.6900 65.7236
102.7000 59.9713
102.7100 45.4529
102.7200 53.5338
102.7300 56.0924
102.7400 41.1475
102.7500 38.0420
102.7600 48.8949
102.7700 45.0750
102.7800 42.6117
102.7900 43.5942
102.8000 49.4184
102.8100 43.0434
102.8200 50.2990
102.8300 47.0310
102.8400 39.7551
102.8500 48.9130
102.8600 41.7656
102.8700 55.3699
102.8800 51.8388
102.8900 52.5211
102.9000 44.6417
102.9100 51.8437
102.9200 50.9637
102.9300 57.5821
102.9400 56.9940
102.9500 48.3948
102.9600 59.6670
102.9700 58.9137
102.9800 49.6202
102.9900 43.9634
103.0000 50.3698
103.0100 52.7999
103.0200 51.7281
103.0300 46.8505
103.0400 47.3627
103.0500 47.3667
103.0600 45.5802
103.0700 54.8921
103.0800 55.3778
103.0900 46.6332
103.1000 42.6597
103.1100 44.4594
103.1200 62.3495
103.1300 50.2345
103.1400 56.9034
103.1500 63.7677
103.1600 48.2736
103.1700 49.0090
103.1800 50.8071
103.1900 47.1642
103.2000 48.8036
103.2100 42.1984
103.2200 51.2794
103.2300 53.8496
103.2400 51.8486
103.2500 50.3952
103.2600 63.4048
103.2700 55.1003
103.2800 59.8602
103.2900 41.9839
103.3000 50.2794
103.3100 49.8513
103.3200 48.1532
103.3300 49.8122
103.3400 59.4389
103.3500 52.2551
103.3600 50.0524
103.3700 46.1026
103.3800 46.1242
103.3900 47.5253
103.4000 50.3345
103.4100 50.6402
103.4200 52.3572
103.4300 54.9235
103.4400 54.6255
103.4500 50.5791
103.4600 57.2364
103.4700 45.0350
103.4800 43.6137
103.4900 42.8296
103.5000 54.3769
103.5100 61.8860
103.5200 53.4423
103.5300 44.1573
103.5400 57.6643
103.5500 39.6685
103.5600 44.0296
103.5700 46.8595
103.5800 40.5395
103.5900 47.9803
103.6000 56.5369
103.6100 56.1401
103.6200 52.5220
103.6300 67.6113
103.6400 63.3809
103.6500 54.1041
103.6600 54.3422
103.6700 54.1032
103.6800 44.6995
103.6900 55.1903
103.7000 50.4831
103.7100 47.6495
103.7200 50.5598
103.7300 45.6758
103.7400 49.0064
103.7500 56.9924
103.7600 55.6810
103.7700 56.9106
103.7800 42.3130
103.7900 46.8403
103.8000 50.3227
103.8100 48.6034
103.8200 53.8827
103.8300 42.4690
103.8400 47.8188
103.8500 46.4070
103.8600 45.1414
103.8700 60.6337
103.8800 52.9031
103.8900 41.3574
103.9000 47.3978
103.9100 55.5739
103.9200 54.6514
103.9300 34.3273
103.9400 65.7771
103.9500 49.5928
103.9600 41.9260
103.9700 43.8826
103.9800 55.1073
103.9900 48.7474
104.0000 55.3786
104.0100 45.5873
104.0200 47.8964
104.0300 50.9506
104.0400 72.0907
104.0500 43.7007
104.0600 40.1406
104.0700 53.9451
104.0800 47.4819
104.0900 43.7259
104.1000 41.6256
104.1100 47.8553
104.1200 56.8697
104.1300 51.6023
104.1400 54.2405
104.1500 47.5980
104.1600 38.3387
104.1700 48.2825
104.1800 53.2504
104.1900 42.8182
104.2000 47.8942
104.2100 52.6011
104.2200 44.7295
104.2300 44.1222
104.2400 51.8926
104.2500 42.6429
104.2600 44.5709
104.2700 47.2916
104.2800 50.4053
104.2900 49.7052
104.3000 48.9604
104.3100 46.9892
104.3200 50.7859
104.3300 46.0312
104.3400 55.0890
104.3500 41.8270
104.3600 59.4535
104.3700 48.1352
104.3800 55.0099
104.3900 45.7527
104.4000 52.2276
104.4100 57.0442
104.4200 45.6389
104.4300 50.4763
104.4400 46.8442
104.4500 48.0627
104.4600 55.7574
104.4700 58.1281
104.4800 44.3547
104.4900 48.8330
104.5000 56.1734
104.5100 52.3078
104.5200 51.3480
104.5300 54.6722
104.5400 49.9222
104.5500 53.7112
104.5600 43.8163
104.5700 53.4280
104.5800 51.8133
104.5900 44.0652
104.6000 42.5312
104.6100 41.8692
104.6200 45.0810
104.6300 45.2722
104.6400 54.2113
104.6500 52.3549
104.6600 50.5480
104.6700 59.3260
104.6800 38.8522
104.6900 48.5082
104.7000 45.4733
104.7100 57.0683
104.7200 51.7680
104.7300 46.6197
104.7400 40.1324
104.7500 41.7930
104.7600 50.7525
104.7700 35.2029
104.7800 57.8001
104.7900 47.3621
104.8000 47.9938
104.8100 54.0265
104.8200 58.7646
104.8300 47.9061
104.8400 38.6089
104.8500 45.6313
104.8600 45.5117
104.8700 50.7746
104.8800 57.6643
104.8900 39.9921
104.9000 43.3412
104.9100 51.9211
104.9200 56.6235
104.9300 43.6160
104.9400 52.1013
104.9500 46.4315
104.9600 46.4854
104.9700 37.6574
104.9800 40.4094
104.9900 51.2378
105.0000 52.7949
105.0100 60.4032
105.0200 53.1394
105.0300 50.6983
105.0400 50.4204
105.0500 47.1416
105.0600 51.1621
105.0700 43.3240
105.0800 41.9622
105.0900 55.6424
105.1000 52.4308
105.1100 58.1452
105.1200 48.5527
105.1300 52.9545
105.1400 49.9655
105.1500 57.3793
105.1600 56.9987
105.1700 60.7309
105.1800 47.8503
105.1900 46.9865
105.2000 48.8015
105.2100 50.9711
105.2200 47.3104
105.2300 40.6074
105.2400 53.7335
105.2500 48.9247
105.2600 41.4739
105.2700 37.6596
105.2800 50.1024
105.2900 49.7014
105.3000 57.2871
105.3100 48.7532
105.3200 59.8278
105.3300 44.9542
105.3400 57.4467
105.3500 58.3796
105.3600 49.9253
105.3700 56.9640
105.3800 45.1232
105.3900 36.7989
105.4000 55.8402
105.4100 48.6996
105.4200 54.1431
105.4300 51.4452
105.4400 53.1232
105.4500 43.2674
105.4600 46.6751
105.4700 52.1502
105.4800 41.3362
105.4900 63.3312
105.5000 51.1747
105.5100 49.0755
105.5200 54.3171
105.5300 49.1301
105.5400 42.4850
105.5500 49.0355
105.5600 44.7445
105.5700 43.8117
105.5800 36.7166
105.5900 57.4702
105.6000 59.4267
105.6100 49.9952
105.6200 41.8581
105.6300 50.1297
105.6400 41.6814
105.6500 48.5048
105.6600 56.3316
105.6700 53.5446
105.6800 48.0160
105.6900 39.8849
105.7000 40.4602
105.7100 44.0138
105.7200 48.4408
105.7300 47.2780
105.7400 60.9902
105.7500 50.5092
105.7600 46.0048
105.7700 49.7675
105.7800 50.1480
105.7900 45.2150
105.8000 39.2546
105.8100 63.1035
105.8200 38.3815
105.8300 42.1719
105.8400 51.1118
105.8500 54.1317
105.8600 40.1691
105.8700 61.3993
105.8800 59.7995
105.8900 48.2268
105.9000 55.9620
105.9100 48.9844
105.9200 45.6868
105.9300 54.8272
105.9400 53.8485
105.9500 38.3206
105.9600 41.0377
105.9700 48.4509
105.9800 53.9141
105.9900 41.8279
106.0000 38.8774
106.0100 38.6689
106.0200 65.6585
106.0300 55.9296
106.0400 39.0682
106.0500 52.5714
106.0600 53.3036
106.0700 61.1680
106.0800 57.5824
106.0900 49.9401
106.1000 46.1265
106.1100 47.8692
106.1200 47.6864
106.1300 51.5926
106.1400 45.0183
106.1500 44.2545
106.1600 47.0196
106.1700 56.8824
106.1800 48.0502
106.1900 54.6660
106.2000 57.5323
106.2100 49.5799
106.2200 43.1746
106.2300 59.8439
106.2400 58.3387
106.2500 43.9605
106.2600 51.7221
106.2700 54.1830
106.2800 50.7305
106.2900 49.0788
106.3000 58.9936
106.3100 52.7370
106.3200 36.1193
106.3300 51.9536
106.3400 49.3447
106.3500 56.8284
106.3600 55.8132
106.3700 40.2299
106.3800 39.6911
106.3900 48.0551
106.4000 53.1976
106.4100 53.6692
106.4200 66.2452
106.4300 46.9913
106.4400 47.0755
106.4500 36.3322
106.4600 54.7771
106.4700 63.5436
106.4800 52.9695
106.4900 47.0861
106.5000 50.8398
106.5100 65.2357
106.5200 67.9100
106.5300 69.3706
106.5400 35.6801
106.5500 46.9886
106.5600 42.7275
106.5700 55.9795
106.5800 55.2263
106.5900 45.6704
106.6000 50.6800
106.6100 47.1933
106.6200 52.3230
106.6300 47.5680
106.6400 50.4578
106.6500 49.6788
106.6600 42.5228
106.6700 46.3425
106.6800 49.8634
106.6900 54.3501
106.7000 48.5433
106.7100 48.1175
106.7200 54.7734
106.7300 46.8130
106.7400 50.1542
106.7500 55.3385
106.7600 36.4244
106.7700 46.6621
106.7800 43.0735
106.7900 56.3942
106.8000 66.7711
106.8100 50.9078
106.8200 43.3407
106.8300 57.5117
106.8400 43.4200
106.8500 46.5484
106.8600 49.4346
106.8700 60.8737
106.8800 40.4562
106.8900 48.4373
106.9000 66.7451
106.9100 53.3984
106.9200 52.1326
106.9300 54.8763
106.9400 50.8821
106.9500 51.1000
106.9600 44.6818
106.9700 46.0180
106.9800 51.2355
106.9900 58.0587
107.0000 40.3902
107.0100 62.0877
107.0200 57.9495
107.0300 51.4429
107.0400 59.6926
107.0500 50.8002
107.0600 64.6012
107.0700 56.4462
107.0800 42.1910
107.0900 60.6679
107.1000 49.5741
107.1100 60.8353
107.1200 39.1366
107.1300 56.1364
107.1400 53.9640
107.1500 46.9819
107.1600 51.9012
107.1700 59.5944
107.1800 53.7381
107.1900 50.8721
107.2000 46.7399
107.2100 37.7425
107.2200 50.5435
107.2300 43.9932
107.2400 50.8225
107.2500 52.0010
107.2600 54.6498
107.2700 49.9686
107.2800 51.3055
107.2900 55.7019
107.3000 40.3352
107.3100 50.2777
107.3200 48.2729
107.3300 47.0254
107.3400 45.3680
107.3500 62.8453
107.3600 36.8315
107.3700 41.0468
107.3800 62.5920
107.3900 45.4072
107.4000 37.6861
107.4100 53.7879
107.4200 38.6061
107.4300 53.9952
107.4400 58.8052
107.4500 55.5853
107.4600 56.9282
107.4700 47.9201
107.4800 36.1244
107.4900 50.2647
107.5000 43.1001
107.5100 40.8695
107.5200 56.4937
107.5300 50.9849
107.5400 52.0983
107.5500 46.7985
107.5600 59.8819
107.5700 46.3559
107.5800 52.0261
107.5900 38.4745
107.6000 41.5164
107.6100 44.0602
107.6200 64.8334
107.6300 52.7099
107.6400 52.0412
107.6500 43.5890
107.6600 46.7827
107.6700 53.7149
107.6800 50.0311
107.6900 50.6200
107.7000 49.7664
107.7100 48.8874
107.7200 51.0031
107.7300 52.7215
107.7400 54.8183
107.7500 56.9942
107.7600 51.2749
107.7700 54.6379
107.7800 57.9622
107.7900 55.1232
107.8000 48.3542
107.8100 60.4826
107.8200 45.5199
107.8300 63.4455
107.8400 49.5120
107.8500 47.8206
107.8600 43.5341
107.8700 61.2888
107.8800 74.1671
107.8900 56.3754
107.9000 57.4928
107.9100 64.9987
107.9200 48.9316
107.9300 54.6834
107.9400 46.4520
107.9500 61.7735
107.9600 50.3370
107.9700 37.1619
107.9800 53.5064
107.9900 48.9817
108.0000 58.1727
108.0100 54.5906
108.0200 41.6311
108.0300 58.3451
108.0400 56.6985
108.0500 51.8583
108.0600 47.2804
108.0700 48.5721
108.0800 64.3543
108.0900 56.6014
108.1000 51.6522
108.1100 58.2037
108.1200 52.9704
108.1300 51.2928
108.1400 39.0471
108.1500 47.4397
108.1600 38.3262
108.1700 45.2201
108.1800 47.2792
108.1900 56.9594
108.2000 50.0503
108.2100 42.9408
108.2200 51.6402
108.2300 49.5092
108.2400 45.6567
108.2500 47.3787
108.2600 42.5738
108.2700 40.6117
108.2800 40.7445
108.2900 62.7484
108.3000 51.8585
108.3100 44.6054
108.3200 45.9084
108.3300 54.2782
108.3400 58.8914
108.3500 53.8684
108.3600 47.3270
108.3700 48.7772
108.3800 41.9345
108.3900 58.4916
108.4000 46.9125
108.4100 52.1008
108.4200 47.7465
108.4300 47.0973
108.4400 55.3564
108.4500 49.2456
108.4600 54.7797
108.4700 45.3586
108.4800 43.7033
108.4900 50.2959
108.5000 55.8404
108.5100 45.9630
108.5200 51.9187
108.5300 52.4449
108.5400 66.6277
108.5500 46.2728
108.5600 55.3223
108.5700 62.7137
108.5800 39.3274
108.5900 39.4460
108.6000 49.4738
108.6100 41.9868
108.6200 58.3639
108.6300 43.1467
108.6400 51.3324
108.6500 49.7159
108.6600 49.1270
108.6700 51.1123
108.6800 52.8606
108.6900 40.5943
108.7000 49.5048
108.7100 49.1442
108.7200 48.6713
108.7300 45.9991
108.7400 59.0814
108.7500 50.4079
108.7600 52.9035
108.7700 63.0777
108.7800 57.8731
108.7900 53.5906
108.8000 32.7096
108.8100 49.1616
108.8200 42.0100
108.8300 48.0357
108.8400 40.5691
108.8500 46.9761
108.8600 50.6462
108.8700 45.9521
108.8800 51.7897
108.8900 59.9033
108.9000 50.0362
108.9100 54.8810
108.9200 48.1163
108.9300 56.6382
108.9400 47.5840
108.9500 50.9275
108.9600 52.4164
108.9700 45.8903
108.9800 40.8190
108.9900 47.9961
109.0000 51.1062
109.0100 46.2304
109.0200 41.1389
109.0300 51.9398
109.0400 51.9924
109.0500 46.2285
109.0600 52.6319
109.0700 50.7255
109.0800 57.2045
109.0900 44.5652
109.1000 43.8745
109.1100 47.9017
109.1200 53.6141
109.1300 55.9062
109.1400 52.3888
109.1500 54.2818
109.1600 47.3566
109.1700 46.2857
109.1800 46.0084
109.1900 48.6395
109.2000 56.8382
109.2100 44.0181
109.2200 61.2089
109.2300 62.7851
109.2400 33.6076
109.2500 45.2963
109.2600 44.3844
109.2700 52.0542
109.2800 61.1305
109.2900 61.8306
109.3000 49.1687
109.3100 62.1792
109.3200 54.7387
109.3300 47.1737
109.3400 45.2337
109.3500 38.9261
109.3600 50.2187
109.3700 51.1336
109.3800 41.3545
109.3900 52.3150
109.4000 48.8973
109.4100 46.3604
109.4200 60.1942
109.4300 42.2086
109.4400 53.2738
109.4500 41.6234
109.4600 53.3538
109.4700 52.4482
109.4800 50.4713
109.4900 46.1436
109.5000 45.4747
109.5100 54.2039
109.5200 54.0726
109.5300 53.2200
109.5400 47.5719
109.5500 57.6884
109.5600 52.9440
109.5700 61.3904
109.5800 56.6293
109.5900 51.0107
109.6000 42.3712
109.6100 52.1022
109.6200 61.5832
109.6300 47.6588
109.6400 59.0793
109.6500 41.3025
109.6600 47.7623
109.6700 56.9421
109.6800 55.9343
109.6900 39.2561
109.7000 52.2569
109.7100 47.0560
109.7200 46.2711
109.7300 48.2473
109.7400 42.6020
109.7500 47.3476
109.7600 58.4833
109.7700 59.9090
109.7800 44.5786
109.7900 43.6616
109.8000 41.5113
109.8100 43.4002
109.8200 57.1519
109.8300 50.7745
109.8400 54.6130
109.8500 60.1430
109.8600 43.5484
109.8700 51.5019
109.8800 49.5048
109.8900 37.0415
109.9000 54.1377
109.9100 52.7034
109.9200 54.3204
109.9300 50.2383
109.9400 52.2713
109.9500 47.4059
109.9600 53.1424
109.9700 47.5552
109.9800 42.5009
109.9900 53.0949
110.0000 54.1434
110.0100 47.2267
110.0200 46.1552
110.0300 53.9772
110.0400 54.2031
110.0500 41.7221
110.0600 49.0779
110.0700 53.4458
110.0800 60.7318
110.0900 45.0623
110.1000 56.4667
110.1100 56.3222
110.1200 41.5605
110.1300 47.2246
110.1400 42.3223
110.1500 40.5987
110.1600 52.9807
110.1700 66.9498
110.1800 57.8626
110.1900 61.3316
110.2000 50.2272
110.2100 57.5181
110.2200 56.6560
110.2300 53.2373
110.2400 54.9437
110.2500 51.3750
110.2600 42.5173
110.2700 43.7559
110.2800 49.1831
110.2900 51.4646
110.3000 39.9359
110.3100 55.2143
110.3200 56.9338
110.3300 44.7292
110.3400 48.7163
110.3500 54.3675
110.3600 43.8295
110.3700 50.2140
110.3800 46.3102
110.3900 50.9108
110.4000 59.8960
110.4100 45.7388
110.4200 47.3895
110.4300 46.9207
110.4400 57.8432
110.4500 52.3073
110.4600 43.6705
110.4700 48.4580
110.4800 47.6942
110.4900 48.5872
110.5000 47.5097
110.5100 34.3779
110.5200 48.3844
110.5300 53.2275
110.5400 65.1919
110.5500 53.7532
110.5600 52.0451
110.5700 48.1916
110.5800 49.0265
110.5900 53.4134
110.6000 46.1500
110.6100 63.8410
110.6200 52.9124
110.6300 36.3456
110.6400 39.5781
110.6500 38.8479
110.6600 47.1255
110.6700 41.6156
110.6800 55.0141
110.6900 49.7206
110.7000 49.5753
110.7100 50.5007
110.7200 32.5618
110.7300 39.5275
110.7400 60.8511
110.7500 49.4878
110.7600 54.7820
110.7700 42.0629
110.7800 48.7046
110.7900 45.3923
110.8000 57.9749
110.8100 61.1411
110.8200 42.9230
110.8300 43.2242
110.8400 57.7009
110.8500 57.4669
110.8600 57.7521
110.8700 49.4412
110.8800 52.9773
110.8900 56.8152
110.9000 58.0937
110.9100 42.3794
110.9200 49.2270
110.9300 50.1109
110.9400 48.3785
110.9500 54.7066
110.9600 50.2645
110.9700 54.7385
110.9800 51.2882
110.9900 52.8810
111.0000 40.1556
111.0100 64.5025
111.0200 53.2952
111.0300 52.0019
111.0400 44.2926
111.0500 46.9102
111.0600 46.0921
111.0700 42.3841
111.0800 45.7613
111.0900 49.7775
111.1000 49.9329
111.1100 52.6544
111.1200 50.6909
111.1300 56.2513
111.1400 54.8247
111.1500 59.5629
111.1600 42.8941
111.1700 59.9147
111.1800 56.5368
111.1900 56.2369
111.2000 42.7898
111.2100 50.7111
111.2200 42.2014
111.2300 53.8333
111.2400 52.8699
111.2500 46.5678
111.2600 37.2463
111.2700 54.5961
111.2800 58.7579
111.2900 54.0631
111.3000 55.9739
111.3100 60.6500
111.3200 55.7420
111.3300 50.5222
111.3400 53.1543
111.3500 56.5103
111.3600 54.3269
111.3700 54.5778
111.3800 53.6834
111.3900 56.4340
111.4000 57.0260
111.4100 53.7224
111.4200 54.7668
111.4300 52.3901
111.4400 61.3606
111.4500 40.6295
111.4600 50.6260
111.4700 52.1088
111.4800 46.6975
111.4900 48.8281
111.5000 51.5677
111.5100 42.1113
111.5200 52.0069
111.5300 57.6011
111.5400 60.8028
111.5500 55.3161
111.5600 47.1227
111.5700 42.8764
111.5800 46.7408
111.5900 49.7680
111.6000 50.4896
111.6100 43.9117
111.6200 50.4290
111.6300 54.7757
111.6400 54.0284
111.6500 46.4105
111.6600 55.7309
111.6700 54.4021
111.6800 45.0434
111.6900 61.7862
111.7000 56.7113
111.7100 50.7487
111.7200 60.1060
111.7300 50.5579
111.7400 54.1330
111.7500 49.7141
111.7600 46.4497
111.7700 47.8250
111.7800 52.5062
111.7900 46.3901
111.8000 40.7732
111.8100 55.3661
111.8200 47.2837
111.8300 57.6409
111.8400 45.9247
111.8500 48.0228
111.8600 59.1546
111.8700 60.3823
111.8800 37.0450
111.8900 51.8329
111.9000 54.1832
111.9100 54.2933
111.9200 46.7770
111.9300 51.0865
111.9400 46.4853
111.9500 45.6399
111.9600 45.8381
111.9700 50.9130
111.9800 44.6648
111.9900 55.2783
112.0000 59.5042
112.0100 50.1086
112.0200 54.4132
112.0300 50.6933
112.0400 47.6646
112.0500 56.1366
112.0600 53.3183
112.0700 48.9061
112.0800 52.1368
112.0900 43.1213
112.1000 56.0829
112.1100 56.6479
112.1200 60.0882
112.1300 45.4285
112.1400 48.5925
112.1500 53.5896
112.1600 43.6228
112.1700 51.7869
112.1800 43.5046
112.1900 54.7529
112.2000 36.5152
112.2100 52.2583
112.2200 62.6567
112.2300 48.6362
112.2400 51.4891
112.2500 50.4709
112.2600 53.4087
112.2700 50.5861
112.2800 55.4875
112.2900 40.5841
112.3000 62.1305
112.3100 50.3306
112.3200 50.3550
112.3300 60.4875
112.3400 58.6643
112.3500 66.8060
112.3600 55.9445
112.3700 46.4268
112.3800 58.1845
112.3900 45.3726
112.4000 55.1049
112.4100 60.6674
112.4200 47.8304
112.4300 45.2634
112.4400 51.7748
112.4500 47.0257
112.4600 50.5696
112.4700 41.4956
112.4800 43.5831
112.4900 41.4616
112.5000 53.0600
112.5100 50.7835
112.5200 50.6837
112.5300 52.1590
112.5400 57.3312
112.5500 44.2963
112.5600 49.3458
112.5700 46.2658
112.5800 43.4481
112.5900 56.0162
112.6000 45.8426
112.6100 38.7073
112.6200 65.6759
112.6300 50.0613
112.6400 53.0743
112.6500 51.1841
112.6600 45.3124
112.6700 46.0358
112.6800 48.3270
112.6900 50.2387
112.7000 59.8046
112.7100 44.3091
112.7200 55.8935
112.7300 53.4556
112.7400 57.2359
112.7500 45.0148
112.7600 56.3698
112.7700 48.5461
112.7800 46.3887
112.7900 47.5643
112.8000 51.5955
112.8100 57.5270
112.8200 52.4095
112.8300 52.9678
112.8400 56.3796
112.8500 49.8496
112.8600 47.6404
112.8700 50.0784
112.8800 46.8153
112.8900 46.7838
112.9000 52.3388
112.9100 44.1653
112.9200 51.7436
112.9300 41.9322
112.9400 57.3150
112.9500 43.9398
112.9600 53.3605
112.9700 44.9909
112.9800 45.6702
112.9900 56.2115
113.0000 58.5784
113.0100 60.3601
113.0200 39.2664
113.0300 46.1620
113.0400 41.9886
113.0500 44.6846
113.0600 44.9293
113.0700 54.7427
113.0800 56.3558
113.0900 63.0017
113.1000 48.2735
113.1100 52.9354
113.1200 61.1258
113.1300 50.0379
113.1400 51.6997
113.1500 58.9965
113.1600 52.9336
113.1700 53.7264
113.1800 46.8780
113.1900 56.5015
113.2000 47.6629
113.2100 46.2470
113.2200 52.3092
113.2300 52.4922
113.2400 44.3458
113.2500 52.6284
113.2600 61.5177
113.2700 64.8123
113.2800 61.6776
113.2900 61.6378
113.3000 44.2423
113.3100 49.2628
113.3200 49.4135
113.3300 55.2919
113.3400 62.8175
113.3500 43.5081
113.3600 47.8879
113.3700 51.4827
113.3800 52.5825
113.3900 48.1593
113.4000 45.9102
113.4100 38.6632
113.4200 50.4565
113.4300 47.9353
113.4400 55.5802
113.4500 49.9877
113.4600 48.9027
113.4700 37.6512
113.4800 54.6791
113.4900 59.4563
113.5000 46.4431
113.5100 63.2853
113.5200 49.5987
113.5300 43.0213
113.5400 49.0649
113.5500 57.7743
113.5600 58.5217
113.5700 48.7141
113.5800 44.9571
113.5900 52.3834
113.6000 55.4751
113.6100 52.7419
113.6200 49.6455
113.6300 64.3910
113.6400 53.4737
113.6500 58.2111
113.6600 61.2142
113.6700 45.3619
113.6800 50.3356
113.6900 47.8442
113.7000 46.1282
113.7100 62.0484
113.7200 42.7790
113.7300 43.8595
113.7400 50.1346
113.7500 52.1313
113.7600 50.0885
113.7700 47.7964
113.7800 58.1179
113.7900 53.1770
113.8000 47.7692
113.8100 50.2455
113.8200 40.8309
113.8300 46.6980
113.8400 48.2212
113.8500 46.9388
113.8600 61.2564
113.8700 42.2950
113.8800 49.3075
113.8900 38.2343
113.9000 49.6157
113.9100 47.8774
113.9200 50.7379
113.9300 48.7207
113.9400 55.5822
113.9500 54.2924
113.9600 56.2146
113.9700 41.8425
113.9800 59.2235
113.9900 47.8155
114.0000 56.1413
114.0100 46.4284
114.0200 49.7396
114.0300 53.2720
114.0400 48.4983
114.0500 61.8205
114.0600 50.3060
114.0700 51.7037
114.0800 54.7242
114.0900 56.2662
114.1000 43.9886
114.1100 62.3570
114.1200 52.3817
114.1300 60.9731
114.1400 69.1048
114.1500 53.0526
114.1600 50.5925
114.1700 49.5733
114.1800 44.6668
114.1900 50.3652
114.2000 46.8006
114.2100 57.5634
114.2200 60.3582
114.2300 41.7939
114.2400 45.4784
114.2500 51.6378
114.2600 50.1883
114.2700 46.5270
114.2800 55.0921
114.2900 49.0638
114.3000 52.0391
114.3100 63.0904
114.3200 49.6883
114.3300 51.1841
114.3400 51.0770
114.3500 40.6125
114.3600 46.6849
114.3700 51.4795
114.3800 58.9476
114.3900 60.0155
114.4000 52.0993
114.4100 63.4268
114.4200 52.8661
114.4300 48.6845
114.4400 49.3487
114.4500 47.1793
114.4600 65.4240
114.4700 62.7262
114.4800 60.8942
114.4900 50.8723
114.5000 43.4003
114.5100 49.7152
114.5200 54.7752
114.5300 38.7562
114.5400 51.2681
114.5500 49.6365
114.5600 62.7733
114.5700 44.4976
114.5800 49.5528
114.5900 47.9327
114.6000 79.4577
114.6100 52.1562
114.6200 47.7489
114.6300 49.6441
114.6400 55.9395
114.6500 51.6763
114.6600 53.3858
114.6700 75.0657
114.6800 63.2587
114.6900 49.8869
114.7000 51.9782
114.7100 69.9891
114.7200 54.5897
114.7300 58.8212
114.7400 63.3323
114.7500 57.0396
114.7600 55.4849
114.7700 58.7019
114.7800 49.2381
114.7900 57.0797
114.8000 55.0754
114.8100 57.9418
114.8200 58.3416
114.8300 56.7906
114.8400 47.3145
114.8500 59.1131
114.8600 43.0862
114.8700 48.6049
114.8800 46.7086
114.8900 53.0261
114.9000 49.6401
114.9100 61.8241
114.9200 49.0140
114.9300 49.0954
114.9400 48.1120
114.9500 54.4745
114.9600 51.9694
114.9700 56.1567
114.9800 45.7481
114.9900 58.7411
115.0000 46.6576
115.0100 48.9774
115.0200 36.7004
115.0300 57.2153
115.0400 50.8160
115.0500 54.8439
115.0600 56.8072
115.0700 52.0919
115.0800 53.7145
115.0900 56.0059
115.1000 54.0703
115.1100 53.8466
115.1200 62.0014
115.1300 38.5482
115.1400 50.4419
115.1500 41.8038
115.1600 42.3992
115.1700 48.4213
115.1800 54.2922
115.1900 48.5656
115.2000 43.6493
115.2100 48.4677
115.2200 47.3196
115.2300 45.9389
115.2400 52.1040
115.2500 40.5395
115.2600 57.8964
115.2700 54.7506
115.2800 51.6927
115.2900 59.3270
115.3000 55.7782
115.3100 52.8936
115.3200 44.3623
115.3300 46.6881
115.3400 50.8435
115.3500 52.5461
115.3600 52.9346
115.3700 54.2471
115.3800 41.5730
115.3900 54.1262
115.4000 42.4874
115.4100 55.6609
115.4200 41.8374
115.4300 60.8842
115.4400 40.6138
115.4500 47.6522
115.4600 62.8284
115.4700 55.7551
115.4800 52.0287
115.4900 59.5605
115.5000 64.8620
115.5100 55.8881
115.5200 50.6679
115.5300 43.3342
115.5400 48.0693
115.5500 45.7615
115.5600 53.6352
115.5700 58.7237
115.5800 61.3317
115.5900 52.5023
115.6000 56.0059
115.6100 56.8063
115.6200 58.3497
115.6300 47.1969
115.6400 54.4863
115.6500 54.9283
115.6600 48.5831
115.6700 49.5523
115.6800 48.6837
115.6900 48.5739
115.7000 63.4760
115.7100 55.2144
115.7200 51.8311
115.7300 55.2524
115.7400 54.8482
115.7500 52.0980
115.7600 46.6754
115.7700 50.6115
115.7800 48.4895
115.7900 63.6261
115.8000 58.7416
115.8100 54.1436
115.8200 50.1102
115.8300 56.0840
115.8400 44.6558
115.8500 42.4362
115.8600 49.5735
115.8700 50.0411
115.8800 57.7424
115.8900 54.4521
115.9000 58.3936
115.9100 63.8466
115.9200 58.9333
115.9300 63.6878
115.9400 60.5336
115.9500 66.2322
115.9600 57.7285
115.9700 52.4841
115.9800 52.9392
115.9900 52.5851
116.0000 44.7624
116.0100 45.2853
116.0200 60.2171
116.0300 50.7731
116.0400 65.1863
116.0500 60.3749
116.0600 45.2402
116.0700 44.9911
116.0800 51.2013
116.0900 67.6314
116.1000 60.7989
116.1100 55.2121
116.1200 60.3905
116.1300 54.7343
116.1400 65.2150
116.1500 54.2328
116.1600 62.2328
116.1700 39.6748
116.1800 50.4701
116.1900 46.9370
116.2000 42.7426
116.2100 48.9498
116.2200 50.7887
116.2300 46.1267
116.2400 47.8461
116.2500 57.8311
116.2600 41.9853
116.2700 48.2041
116.2800 45.6788
116.2900 58.1957
116.3000 50.4127
116.3100 44.8071
116.3200 48.2989
116.3300 58.4035
116.3400 61.1217
116.3500 51.4968
116.3600 58.0830
116.3700 55.8098
116.3800 50.0206
116.3900 50.1239
116.4000 57.7994
116.4100 48.6136
116.4200 56.0624
116.4300 49.5215
116.4400 49.5119
116.4500 45.5161
116.4600 58.7636
116.4700 53.0282
116.4800 50.2363
116.4900 55.0749
116.5000 58.8609
116.5100 52.5408
116.5200 65.4394
116.5300 53.3337
116.5400 67.0067
116.5500 62.2330
116.5600 56.0969
116.5700 47.7368
116.5800 52.8164
116.5900 55.6253
116.6000 57.0829
116.6100 58.1796
116.6200 55.6945
116.6300 55.1079
116.6400 60.8998
116.6500 61.8077
116.6600 59.6191
116.6700 44.4859
116.6800 53.4928
116.6900 44.3994
116.7000 46.3161
116.7100 53.0254
116.7200 44.9816
116.7300 50.6800
116.7400 51.6245
116.7500 43.5887
116.7600 48.2424
116.7700 63.6447
116.7800 56.4472
116.7900 53.7797
116.8000 54.7886
116.8100 43.8607
116.8200 51.4206
116.8300 52.8957
116.8400 50.6899
116.8500 46.0896
116.8600 46.9706
116.8700 54.4522
116.8800 50.4302
116.8900 46.3193
116.9000 59.9279
116.9100 51.4716
116.9200 51.8974
116.9300 60.9834
116.9400 60.0859
116.9500 52.5967
116.9600 57.4341
116.9700 60.6706
116.9800 54.0445
116.9900 59.1317
117.0000 57.5361
117.0100 52.3276
117.0200 53.8758
117.0300 49.6048
117.0400 38.7264
117.0500 50.0498
117.0600 40.0107
117.0700 57.2822
117.0800 59.2856
117.0900 54.7105
117.1000 40.3098
117.1100 56.7329
117.1200 52.2192
117.1300 60.0884
117.1400 52.8896
117.1500 61.5487
117.1600 58.8683
117.1700 45.5843
117.1800 55.0054
117.1900 46.8293
117.2000 55.5954
117.2100 54.3524
117.2200 42.2179
117.2300 71.8276
117.2400 52.1884
117.2500 56.9716
117.2600 59.8357
117.2700 54.4506
117.2800 55.0707
117.2900 45.4859
117.3000 55.0381
117.3100 52.6368
117.3200 51.7263
117.3300 55.7990
117.3400 55.9131
117.3500 50.2425
117.3600 52.7687
117.3700 54.2223
117.3800 56.7394
117.3900 52.5839
117.4000 47.9176
117.4100 48.1181
117.4200 56.1622
117.4300 51.4692
117.4400 56.0465
117.4500 57.2902
117.4600 49.2706
117.4700 52.9514
117.4800 59.5389
117.4900 61.0275
117.5000 56.6035
117.5100 48.0233
117.5200 57.5934
117.5300 49.7103
117.5400 50.1108
117.5500 53.7576
117.5600 46.0807
117.5700 49.0669
117.5800 53.0743
117.5900 48.0478
117.6000 53.5246
117.6100 41.2529
117.6200 49.3328
117.6300 59.3653
117.6400 55.7860
117.6500 54.2890
117.6600 49.9999
117.6700 51.0803
117.6800 48.7347
117.6900 63.0747
117.7000 55.5719
117.7100 52.6344
117.7200 51.9289
117.7300 68.4866
117.7400 50.9176
117.7500 49.6234
117.7600 62.2743
117.7700 64.1433
117.7800 64.4098
117.7900 58.9942
117.8000 43.9861
117.8100 42.7585
117.8200 53.1883
117.8300 45.0342
117.8400 49.1928
117.8500 54.5020
117.8600 40.8849
117.8700 44.2157
117.8800 42.6041
117.8900 52.5497
117.9000 51.1514
117.9100 46.1372
117.9200 42.9512
117.9300 59.0501
117.9400 55.3288
117.9500 55.3623
117.9600 58.4801
117.9700 50.9084
117.9800 62.0152
117.9900 46.7423
118.0000 46.9149
118.0100 41.5400
118.0200 48.1982
118.0300 40.4317
118.0400 40.9077
118.0500 61.7281
118.0600 44.4341
118.0700 49.0060
118.0800 54.8997
118.0900 48.5783
118.1000 41.9370
118.1100 36.2883
118.1200 47.8297
118.1300 48.5930
118.1400 50.7220
118.1500 55.0591
118.1600 46.9923
118.1700 49.9023
118.1800 52.2015
118.1900 60.2238
118.2000 57.5034
118.2100 51.4592
118.2200 58.2477
118.2300 50.3272
118.2400 52.0665
118.2500 53.4932
118.2600 51.5139
118.2700 44.4840
118.2800 53.6746
118.2900 53.3228
118.3000 61.0647
118.3100 51.6772
118.3200 51.5984
118.3300 60.3850
118.3400 47.6744
118.3500 55.3133
118.3600 63.2000
118.3700 67.2161
118.3800 39.5455
118.3900 55.3192
118.4000 41.6769
118.4100 50.8050
118.4200 57.8934
118.4300 50.7520
118.4400 46.8779
118.4500 54.0473
118.4600 42.5718
118.4700 62.0406
118.4800 71.8112
118.4900 39.0371
118.5000 49.8317
118.5100 46.4907
118.5200 46.5771
118.5300 47.2162
118.5400 57.0794
118.5500 52.0932
118.5600 46.6595
118.5700 47.1384
118.5800 48.6161
118.5900 43.5516
118.6000 48.2217
118.6100 43.1711
118.6200 50.4387
118.6300 48.6994
118.6400 47.8762
118.6500 65.1670
118.6600 50.4870
118.6700 43.7734
118.6800 50.2052
118.6900 59.8694
118.7000 61.0890
118.7100 47.4384
118.7200 49.8682
118.7300 58.4274
118.7400 55.8881
118.7500 52.3128
118.7600 46.6208
118.7700 71.8075
118.7800 53.8608
118.7900 52.1159
118.8000 57.6307
118.8100 54.8754
118.8200 49.8399
118.8300 53.5718
118.8400 54.7171
118.8500 50.2610
118.8600 52.2385
118.8700 41.2068
118.8800 50.1658
118.8900 47.5718
118.9000 48.9116
118.9100 46.1324
118.9200 48.0490
118.9300 63.1766
118.9400 52.4653
118.9500 63.2662
118.9600 63.0747
118.9700 43.6800
118.9800 59.9621
118.9900 50.3097
119.0000 50.1151
119.0100 57.4725
119.0200 51.5256
119.0300 50.6991
119.0400 51.7024
119.0500 51.7766
119.0600 58.0795
119.0700 59.0307
119.0800 54.9554
119.0900 50.3175
119.1000 56.7255
119.1100 50.2611
119.1200 48.9557
119.1300 43.3902
119.1400 52.8156
119.1500 64.3572
119.1600 47.0261
119.1700 59.5847
119.1800 59.1211
119.1900 56.3513
119.2000 51.5367
119.2100 41.6592
119.2200 47.3801
119.2300 50.2904
119.2400 60.6298
119.2500 53.4504
119.2600 55.0240
119.2700 42.5930
119.2800 50.1232
119.2900 52.3076
119.3000 53.0179
119.3100 48.7900
119.3200 52.6587
119.3300 54.6858
119.3400 41.5035
119.3500 43.7905
119.3600 50.0397
119.3700 61.1378
119.3800 51.1095
119.3900 56.4589
119.4000 52.7747
119.4100 50.9308
119.4200 49.5345
119.4300 52.2545
119.4400 52.5536
119.4500 50.5475
119.4600 45.4633
119.4700 47.9922
119.4800 65.2086
119.4900 49.0170
119.5000 51.5427
119.5100 39.1710
119.5200 56.2643
119.5300 52.6950
119.5400 52.7431
119.5500 53.0338
119.5600 47.9572
119.5700 46.2499
119.5800 55.0463
119.5900 54.7418
119.6000 41.7628
119.6100 49.4683
119.6200 44.2194
119.6300 50.0691
119.6400 50.4115
119.6500 52.3546
119.6600 52.2901
119.6700 51.3342
119.6800 45.5829
119.6900 61.4269
119.7000 51.1028
119.7100 54.3895
119.7200 52.7082
119.7300 40.8204
119.7400 53.1389
119.7500 42.1866
119.7600 47.0513
119.7700 39.4946
119.7800 53.9888
119.7900 56.5831
119.8000 45.0988
119.8100 41.4303
119.8200 46.4165
119.8300 53.8158
119.8400 63.9419
119.8500 54.9106
119.8600 65.9223
119.8700 53.3676
119.8800 57.1742
119.8900 54.0067
119.9000 63.1002
119.9100 53.9351
119.9200 55.5869
119.9300 54.0580
119.9400 39.2250
119.9500 51.5228
119.9600 49.4906
119.9700 49.1772
119.9800 56.5148
119.9900 52.4443
