#Collected Data-28
#Intensity_unit=counts
#Attenuator_coefficient=1.000000
40.0000 13.3654
40.0100 7.2121
40.0200 12.9415
40.0300 9.1956
40.0400 7.7803
40.0500 6.9934
40.0600 6.7353
40.0700 10.4354
40.0800 11.4322
40.0900 9.3550
40.1000 8.1317
40.1100 6.8290
40.1200 11.7841
40.1300 8.3186
40.1400 10.1649
40.1500 10.4017
40.1600 8.6429
40.1700 8.3392
40.1800 15.0811
40.1900 10.8144
40.2000 9.0961
40.2100 8.8355
40.2200 6.9604
40.2300 9.6807
40.2400 7.6624
40.2500 11.1229
40.2600 6.4150
40.2700 9.4102
40.2800 5.4777
40.2900 8.3937
40.3000 11.5662
40.3100 6.5097
40.3200 13.1905
40.3300 5.2449
40.3400 13.0838
40.3500 7.2454
40.3600 15.5280
40.3700 6.5894
40.3800 10.0064
40.3900 11.1143
40.4000 13.4663
40.4100 11.7290
40.4200 14.4237
40.4300 9.5427
40.4400 14.0381
40.4500 9.6594
40.4600 6.9159
40.4700 15.0474
40.4800 12.5697
40.4900 4.7065
40.5000 10.9538
40.5100 13.3308
40.5200 10.8412
40.5300 18.7180
40.5400 13.0733
40.5500 14.0885
40.5600 17.9425
40.5700 13.8970
40.5800 13.9033
40.5900 12.4548
40.6000 10.9071
40.6100 17.5828
40.6200 13.2864
40.6300 10.8947
40.6400 13.1155
40.6500 8.0231
40.6600 9.1803
40.6700 12.7773
40.6800 11.4311
40.6900 6.6703
40.7000 12.5013
40.7100 9.2069
40.7200 10.6709
40.7300 7.6369
40.7400 9.9415
40.7500 15.1531
40.7600 16.3601
40.7700 14.4702
40.7800 8.6353
40.7900 12.7758
40.8000 14.5273
40.8100 15.1625
40.8200 12.7067
40.8300 15.5751
40.8400 5.6353
40.8500 12.8554
40.8600 10.0139
40.8700 10.0460
40.8800 12.8994
40.8900 6.5143
40.9000 15.2944
40.9100 11.1856
40.9200 5.7226
40.9300 8.6405
40.9400 6.5039
40.9500 10.6441
40.9600 10.1767
40.9700 7.4877
40.9800 6.9860
40.9900 7.4445
41.0000 7.7665
41.0100 10.9764
41.0200 14.8410
41.0300 7.9069
41.0400 5.4489
41.0500 10.1892
41.0600 14.8535
41.0700 8.4559
41.0800 13.0393
41.0900 6.3707
41.1000 11.2572
41.1100 13.2538
41.1200 6.3715
41.1300 7.4453
41.1400 6.5680
41.1500 13.4129
41.1600 6.9932
41.1700 9.1080
41.1800 15.8013
41.1900 14.8356
41.2000 8.1443
41.2100 9.0772
41.2200 9.2055
41.2300 10.2857
41.2400 9.4986
41.2500 13.8441
41.2600 8.1944
41.2700 15.2794
41.2800 8.9841
41.2900 13.5792
41.3000 9.7451
41.3100 11.4044
41.3200 5.6357
41.3300 11.6686
41.3400 9.9256
41.3500 6.6908
41.3600 6.3668
41.3700 5.0652
41.3800 8.6898
41.3900 7.1500
41.4000 11.7722
41.4100 7.1493
41.4200 8.8730
41.4300 9.5771
41.4400 12.9189
41.4500 14.1960
41.4600 9.4695
41.4700 7.9064
41.4800 10.7179
41.4900 10.8578
41.5000 11.0641
41.5100 9.6499
41.5200 5.5809
41.5300 15.2992
41.5400 3.7052
41.5500 12.6848
41.5600 15.2682
41.5700 9.2474
41.5800 2.9477
41.5900 10.8541
41.6000 10.0921
41.6100 12.1961
41.6200 6.9089
41.6300 9.1829
41.6400 9.2801
41.6500 7.5607
41.6600 8.2296
41.6700 11.8355
41.6800 8.8096
41.6900 9.0232
41.7000 9.4467
41.7100 8.3309
41.7200 14.9002
41.7300 15.5533
41.7400 9.7850
41.7500 9.3030
41.7600 8.3371
41.7700 13.8111
41.7800 10.5075
41.7900 9.5388
41.8000 7.0706
41.8100 13.2164
41.8200 9.9414
41.8300 9.7292
41.8400 7.9913
41.8500 8.1292
41.8600 9.1815
41.8700 9.8187
41.8800 6.2345
41.8900 9.3040
41.9000 12.1326
41.9100 6.7191
41.9200 7.6514
41.9300 5.2608
41.9400 13.9358
41.9500 9.7887
41.9600 14.7344
41.9700 9.2486
41.9800 6.4830
41.9900 9.0125
42.0000 14.0840
42.0100 11.9197
42.0200 11.2367
42.0300 8.4690
42.0400 9.0533
42.0500 13.9631
42.0600 13.8591
42.0700 7.3045
42.0800 5.3568
42.0900 7.6386
42.1000 9.3312
42.1100 9.8737
42.1200 8.1509
42.1300 13.4012
42.1400 6.0472
42.1500 10.5629
42.1600 8.0742
42.1700 12.2225
42.1800 9.9585
42.1900 7.5979
42.2000 7.2501
42.2100 10.0453
42.2200 8.4043
42.2300 10.0238
42.2400 10.9793
42.2500 9.9904
42.2600 12.5270
42.2700 9.3317
42.2800 12.3252
42.2900 8.3908
42.3000 14.2823
42.3100 6.0003
42.3200 9.1631
42.3300 8.9810
42.3400 9.8478
42.3500 7.9923
42.3600 14.8510
42.3700 14.7145
42.3800 16.8805
42.3900 10.4860
42.4000 7.6408
42.4100 10.4192
42.4200 7.7053
42.4300 12.9503
42.4400 12.7944
42.4500 8.3318
42.4600 15.6291
42.4700 10.4881
42.4800 9.3693
42.4900 13.0716
42.5000 8.3635
42.5100 15.7423
42.5200 7.8046
42.5300 14.2247
42.5400 14.1884
42.5500 8.1227
42.5600 12.5856
42.5700 19.9286
42.5800 13.7437
42.5900 9.6994
42.6000 11.5095
42.6100 14.4621
42.6200 10.2774
42.6300 13.3408
42.6400 14.6073
42.6500 9.0494
42.6600 7.7863
42.6700 18.2061
42.6800 12.1866
42.6900 8.6545
42.7000 14.6425
42.7100 19.3486
42.7200 10.0794
42.7300 12.9703
42.7400 8.9653
42.7500 11.3731
42.7600 11.8252
42.7700 10.3508
42.7800 15.3555
42.7900 12.3672
42.8000 8.1835
42.8100 8.2540
42.8200 12.1053
42.8300 9.1274
42.8400 12.5285
42.8500 8.6294
42.8600 10.6237
42.8700 8.5138
42.8800 13.4679
42.8900 14.2288
42.9000 20.2950
42.9100 14.2959
42.9200 4.5616
42.9300 6.1843
42.9400 8.8025
42.9500 8.0317
42.9600 6.4958
42.9700 4.8043
42.9800 6.5330
42.9900 11.5753
43.0000 5.5085
43.0100 11.7336
43.0200 4.3833
43.0300 8.3194
43.0400 12.6360
43.0500 15.4573
43.0600 11.7575
43.0700 9.5306
43.0800 8.5726
43.0900 10.1385
43.1000 9.7021
43.1100 10.8144
43.1200 14.4181
43.1300 8.6546
43.1400 7.5909
43.1500 11.8317
43.1600 9.4520
43.1700 10.3351
43.1800 8.7860
43.1900 5.6462
43.2000 4.1522
43.2100 5.3891
43.2200 11.2785
43.2300 6.3995
43.2400 11.4553
43.2500 10.2723
43.2600 9.2917
43.2700 11.2437
43.2800 7.7860
43.2900 9.1607
43.3000 8.8441
43.3100 9.7710
43.3200 5.0826
43.3300 8.8705
43.3400 7.3104
43.3500 5.2291
43.3600 5.5222
43.3700 3.5428
43.3800 8.5461
43.3900 15.5529
43.4000 10.3059
43.4100 5.4903
43.4200 12.0603
43.4300 12.2942
43.4400 10.3247
43.4500 11.5546
43.4600 11.9944
43.4700 3.9141
43.4800 10.1933
43.4900 10.4204
43.5000 9.2470
43.5100 9.9389
43.5200 9.0473
43.5300 10.6605
43.5400 11.0402
43.5500 4.4277
43.5600 7.3727
43.5700 12.9531
43.5800 12.2845
43.5900 5.8339
43.6000 9.4168
43.6100 11.4313
43.6200 9.9138
43.6300 10.6373
43.6400 12.8035
43.6500 6.9831
43.6600 10.4641
43.6700 5.8983
43.6800 14.1249
43.6900 14.2298
43.7000 18.0020
43.7100 9.9912
43.7200 8.7202
43.7300 7.0684
43.7400 9.2950
43.7500 7.2549
43.7600 9.3549
43.7700 11.8374
43.7800 9.3525
43.7900 11.1825
43.8000 6.8288
43.8100 7.6299
43.8200 11.6285
43.8300 7.2051
43.8400 6.8742
43.8500 11.4444
43.8600 7.7719
43.8700 3.3353
43.8800 6.9887
43.8900 7.0466
43.9000 10.5568
43.9100 7.8327
43.9200 10.5386
43.9300 10.3333
43.9400 9.6055
43.9500 10.3909
43.9600 7.2710
43.9700 8.2365
43.9800 4.1768
43.9900 6.0117
44.0000 13.2113
44.0100 6.8397
44.0200 6.4735
44.0300 8.9529
44.0400 8.1898
44.0500 7.1746
44.0600 5.4822
44.0700 9.2498
44.0800 7.9858
44.0900 5.2641
44.1000 8.8507
44.1100 6.8248
44.1200 7.6123
44.1300 9.2914
44.1400 8.6508
44.1500 8.4609
44.1600 7.6674
44.1700 5.7109
44.1800 8.8245
44.1900 9.0506
44.2000 12.5148
44.2100 7.6426
44.2200 14.8058
44.2300 10.2975
44.2400 11.0588
44.2500 14.9430
44.2600 10.2752
44.2700 8.6983
44.2800 10.3610
44.2900 5.5386
44.3000 9.6687
44.3100 13.6012
44.3200 8.5526
44.3300 9.3039
44.3400 7.9234
44.3500 12.1652
44.3600 12.1916
44.3700 10.5779
44.3800 12.5215
44.3900 5.5210
44.4000 6.7771
44.4100 10.2774
44.4200 10.8179
44.4300 8.1759
44.4400 9.2439
44.4500 8.4708
44.4600 14.1316
44.4700 9.1199
44.4800 9.4648
44.4900 9.4310
44.5000 4.3474
44.5100 10.4439
44.5200 9.3871
44.5300 3.4878
44.5400 10.0673
44.5500 16.0189
44.5600 12.8039
44.5700 11.1042
44.5800 3.5383
44.5900 13.5151
44.6000 14.6809
44.6100 8.5321
44.6200 10.9607
44.6300 4.0148
44.6400 5.0157
44.6500 11.6345
44.6600 7.8536
44.6700 4.4674
44.6800 11.5023
44.6900 13.8061
44.7000 11.6383
44.7100 8.4385
44.7200 16.8947
44.7300 9.8338
44.7400 11.7145
44.7500 11.3915
44.7600 8.8660
44.7700 12.9018
44.7800 11.4688
44.7900 10.3203
44.8000 7.6968
44.8100 6.4968
44.8200 7.6304
44.8300 13.0367
44.8400 10.3359
44.8500 8.0427
44.8600 12.5563
44.8700 9.1711
44.8800 9.6823
44.8900 16.1144
44.9000 15.1678
44.9100 13.3075
44.9200 15.3417
44.9300 12.7521
44.9400 13.2612
44.9500 12.7590
44.9600 13.8799
44.9700 14.9444
44.9800 9.2344
44.9900 14.1835
45.0000 5.0754
45.0100 12.2753
45.0200 6.3590
45.0300 19.6202
45.0400 12.6498
45.0500 14.2592
45.0600 7.2740
45.0700 9.9527
45.0800 9.7799
45.0900 8.3297
45.1000 14.3384
45.1100 10.1109
45.1200 10.7430
45.1300 6.7704
45.1400 9.0111
45.1500 21.4531
45.1600 18.0717
45.1700 14.6618
45.1800 16.8610
45.1900 15.0325
45.2000 11.5851
45.2100 16.1400
45.2200 15.2774
45.2300 21.3830
45.2400 20.5567
45.2500 22.9836
45.2600 19.5930
45.2700 22.4548
45.2800 20.7528
45.2900 24.4377
45.3000 34.8156
45.3100 32.2200
45.3200 24.2328
45.3300 25.5493
45.3400 25.3432
45.3500 44.7468
45.3600 44.2172
45.3700 58.2253
45.3800 57.5805
45.3900 78.1257
45.4000 73.8938
45.4100 101.6914
45.4200 129.1437
45.4300 208.8119
45.4400 256.9732
45.4500 312.2590
45.4600 338.9435
45.4700 465.6010
45.4800 491.7900
45.4900 571.7944
45.5000 636.8699
45.5100 683.9842
45.5200 691.3959
45.5300 726.1429
45.5400 659.2290
45.5500 635.9283
45.5600 570.6791
45.5700 502.4271
45.5800 427.2277
45.5900 386.9951
45.6000 295.3570
45.6100 230.0431
45.6200 200.5479
45.6300 110.2180
45.6400 98.8356
45.6500 74.7699
45.6600 74.2140
45.6700 61.9934
45.6800 43.0828
45.6900 34.2049
45.7000 46.0480
45.7100 40.2792
45.7200 24.6397
45.7300 25.9722
45.7400 19.1350
45.7500 14.3522
45.7600 21.0760
45.7700 16.8118
45.7800 19.5784
45.7900 9.4760
45.8000 10.8967
45.8100 12.6090
45.8200 15.5828
45.8300 9.5662
45.8400 12.8752
45.8500 8.9503
45.8600 9.1136
45.8700 8.7924
45.8800 12.2977
45.8900 18.3081
45.9000 10.1033
45.9100 7.4997
45.9200 12.7036
45.9300 9.9648
45.9400 9.2246
45.9500 9.9570
45.9600 16.2785
45.9700 12.9539
45.9800 10.5500
45.9900 10.5342
46.0000 17.7783
46.0100 14.1660
46.0200 16.7332
46.0300 7.6962
46.0400 8.8826
46.0500 9.3022
46.0600 18.4592
46.0700 14.3024
46.0800 10.8502
46.0900 8.3699
46.1000 10.6765
46.1100 10.8643
46.1200 7.5820
46.1300 7.4025
46.1400 6.9767
46.1500 9.4423
46.1600 11.2740
46.1700 10.8070
46.1800 7.4574
46.1900 8.2300
46.2000 14.3287
46.2100 5.2335
46.2200 8.6453
46.2300 9.6954
46.2400 8.5594
46.2500 7.8611
46.2600 15.0268
46.2700 11.0001
46.2800 3.1231
46.2900 5.1647
46.3000 10.0484
46.3100 13.2395
46.3200 7.9884
46.3300 10.0595
46.3400 10.6034
46.3500 15.9861
46.3600 5.9858
46.3700 13.4662
46.3800 11.2950
46.3900 12.1516
46.4000 9.9986
46.4100 6.2306
46.4200 8.7966
46.4300 9.2839
46.4400 4.1310
46.4500 7.3811
46.4600 10.0848
46.4700 10.2478
46.4800 11.6082
46.4900 10.9618
46.5000 11.1191
46.5100 9.7885
46.5200 8.3009
46.5300 12.5135
46.5400 6.4051
46.5500 11.7965
46.5600 5.9760
46.5700 10.3315
46.5800 6.4824
46.5900 10.6746
46.6000 7.9036
46.6100 13.8904
46.6200 7.2513
46.6300 13.0075
46.6400 11.0633
46.6500 7.5682
46.6600 12.4530
46.6700 12.5181
46.6800 8.2675
46.6900 9.1219
46.7000 10.9847
46.7100 7.4171
46.7200 10.9654
46.7300 10.2788
46.7400 10.4035
46.7500 16.1946
46.7600 11.5990
46.7700 8.0845
46.7800 9.8202
46.7900 9.1597
46.8000 2.8597
46.8100 15.2297
46.8200 7.0843
46.8300 7.5382
46.8400 9.1910
46.8500 8.2291
46.8600 11.4293
46.8700 18.0501
46.8800 18.7829
46.8900 14.5021
46.9000 16.8060
46.9100 16.8528
46.9200 9.8731
46.9300 13.9605
46.9400 13.0587
46.9500 6.9503
46.9600 9.1878
46.9700 7.7458
46.9800 12.1476
46.9900 5.1279
47.0000 5.3843
47.0100 10.8102
47.0200 15.9741
47.0300 6.9769
47.0400 14.4500
47.0500 13.4552
47.0600 9.7335
47.0700 7.5430
47.0800 6.7677
47.0900 13.1170
47.1000 6.8649
47.1100 14.2133
47.1200 7.0306
47.1300 5.0676
47.1400 11.4542
47.1500 6.5743
47.1600 7.1060
47.1700 5.0401
47.1800 7.3409
47.1900 9.7140
47.2000 12.1377
47.2100 8.1510
47.2200 9.2792
47.2300 13.0369
47.2400 6.1856
47.2500 5.6176
47.2600 10.5117
47.2700 7.9099
47.2800 6.5576
47.2900 7.6557
47.3000 9.7369
47.3100 12.4640
47.3200 10.2644
47.3300 6.0214
47.3400 7.2912
47.3500 13.8062
47.3600 4.3450
47.3700 14.0214
47.3800 8.2669
47.3900 11.9198
47.4000 6.2703
47.4100 10.5828
47.4200 11.0850
47.4300 12.2353
47.4400 9.3462
47.4500 8.0820
47.4600 15.4135
47.4700 12.6475
47.4800 10.2115
47.4900 8.4575
47.5000 12.5475
47.5100 10.1785
47.5200 7.1997
47.5300 7.3338
47.5400 14.0097
47.5500 8.6470
47.5600 9.8463
47.5700 7.2407
47.5800 7.1099
47.5900 5.1186
47.6000 5.8888
47.6100 9.2069
47.6200 9.9897
47.6300 4.6488
47.6400 7.3203
47.6500 13.2942
47.6600 8.6588
47.6700 11.6088
47.6800 8.8488
47.6900 9.5294
47.7000 10.2963
47.7100 8.5135
47.7200 11.4731
47.7300 7.5710
47.7400 8.0265
47.7500 11.6649
47.7600 8.3685
47.7700 8.9406
47.7800 12.4947
47.7900 10.5013
47.8000 13.0847
47.8100 9.4005
47.8200 7.7687
47.8300 8.8337
47.8400 7.8809
47.8500 11.0362
47.8600 11.2218
47.8700 7.6285
47.8800 11.3073
47.8900 4.6995
47.9000 10.2394
47.9100 7.0953
47.9200 5.4911
47.9300 10.5191
47.9400 8.4376
47.9500 9.9014
47.9600 10.7391
47.9700 11.6796
47.9800 8.2718
47.9900 6.7229
48.0000 14.0720
48.0100 10.0595
48.0200 10.9142
48.0300 6.5201
48.0400 10.7911
48.0500 6.4313
48.0600 9.5583
48.0700 5.0478
48.0800 13.4197
48.0900 10.6105
48.1000 7.5112
48.1100 11.6585
48.1200 7.2067
48.1300 7.3227
48.1400 8.6866
48.1500 11.4647
48.1600 8.7383
48.1700 11.9325
48.1800 10.6358
48.1900 15.1461
48.2000 6.9972
48.2100 11.4561
48.2200 7.4422
48.2300 7.6949
48.2400 10.0915
48.2500 9.9671
48.2600 7.6820
48.2700 10.3910
48.2800 7.4469
48.2900 8.2666
48.3000 7.7745
48.3100 6.6048
48.3200 14.6356
48.3300 8.2560
48.3400 5.3863
48.3500 13.1513
48.3600 4.6535
48.3700 10.6515
48.3800 3.5963
48.3900 5.9811
48.4000 10.2445
48.4100 8.4146
48.4200 13.0674
48.4300 8.8565
48.4400 7.9140
48.4500 11.4524
48.4600 10.2867
48.4700 9.8186
48.4800 6.3243
48.4900 9.8298
48.5000 5.9274
48.5100 11.6922
48.5200 12.9588
48.5300 9.7286
48.5400 13.3450
48.5500 13.3580
48.5600 7.1597
48.5700 17.4807
48.5800 8.1496
48.5900 12.8067
48.6000 7.9302
48.6100 13.7339
48.6200 6.3997
48.6300 8.0462
48.6400 6.3314
48.6500 8.1809
48.6600 10.7606
48.6700 12.3869
48.6800 11.8513
48.6900 8.6844
48.7000 11.3497
48.7100 8.8721
48.7200 9.2798
48.7300 6.3790
48.7400 7.3768
48.7500 11.3551
48.7600 10.7005
48.7700 8.9781
48.7800 9.6220
48.7900 11.2093
48.8000 9.4974
48.8100 8.0789
48.8200 8.1848
48.8300 4.3272
48.8400 9.2451
48.8500 6.1759
48.8600 6.5548
48.8700 7.2713
48.8800 4.7165
48.8900 2.7171
48.9000 6.6432
48.9100 6.1462
48.9200 11.2895
48.9300 13.3598
48.9400 5.6614
48.9500 7.1616
48.9600 10.4536
48.9700 10.9744
48.9800 12.5347
48.9900 8.9463
49.0000 6.3885
49.0100 11.9429
49.0200 13.9844
49.0300 14.8991
49.0400 7.9431
49.0500 7.6130
49.0600 9.3857
49.0700 11.4491
49.0800 9.8171
49.0900 8.7264
49.1000 6.5758
49.1100 7.7844
49.1200 5.8781
49.1300 5.7162
49.1400 10.2163
49.1500 13.3617
49.1600 13.2937
49.1700 8.3090
49.1800 7.6329
49.1900 10.3190
49.2000 7.7196
49.2100 7.0648
49.2200 9.6860
49.2300 4.3674
49.2400 7.6137
49.2500 5.4557
49.2600 4.3340
49.2700 10.4512
49.2800 14.3008
49.2900 8.1308
49.3000 12.2397
49.3100 6.0652
49.3200 12.0410
49.3300 7.1387
49.3400 11.7416
49.3500 6.2148
49.3600 11.0461
49.3700 4.7455
49.3800 15.1339
49.3900 11.6415
49.4000 10.8757
49.4100 7.3449
49.4200 13.0876
49.4300 12.1745
49.4400 9.6257
49.4500 9.8305
49.4600 5.1050
49.4700 9.0736
49.4800 8.6756
49.4900 18.2973
49.5000 12.3154
49.5100 19.9857
49.5200 19.8711
49.5300 11.2526
49.5400 11.4355
49.5500 8.5365
49.5600 9.0760
49.5700 7.4045
49.5800 10.2490
49.5900 11.2842
49.6000 8.6899
49.6100 7.5601
49.6200 11.0210
49.6300 7.8233
49.6400 10.0288
49.6500 9.1393
49.6600 9.0287
49.6700 13.9255
49.6800 8.1698
49.6900 10.2721
49.7000 7.3001
49.7100 9.6441
49.7200 6.4237
49.7300 10.8258
49.7400 5.8804
49.7500 7.1673
49.7600 6.5309
49.7700 9.3750
49.7800 8.9645
49.7900 8.4351
49.8000 12.4970
49.8100 12.3957
49.8200 6.6888
49.8300 5.6017
49.8400 7.9101
49.8500 12.7616
49.8600 11.8215
49.8700 13.0898
49.8800 9.8720
49.8900 8.0438
49.9000 14.1129
49.9100 11.1963
49.9200 13.3911
49.9300 15.4141
49.9400 8.5772
49.9500 11.7303
49.9600 10.7707
49.9700 11.5696
49.9800 12.7834
49.9900 12.4134
50.0000 10.2289
50.0100 10.5824
50.0200 9.1423
50.0300 5.7510
50.0400 11.2494
50.0500 8.7704
50.0600 6.0541
50.0700 7.7471
50.0800 4.5675
50.0900 1.2260
50.1000 10.6765
50.1100 7.6485
50.1200 5.3676
50.1300 8.7510
50.1400 8.8563
50.1500 11.5644
50.1600 2.8671
50.1700 8.9205
50.1800 8.0340
50.1900 9.7457
50.2000 8.8967
50.2100 12.5715
50.2200 6.2634
50.2300 9.4625
50.2400 9.6898
50.2500 16.0990
50.2600 13.6005
50.2700 5.3437
50.2800 7.6509
50.2900 16.5016
50.3000 9.4601
50.3100 15.4396
50.3200 3.8541
50.3300 10.8915
50.3400 9.5936
50.3500 9.2314
50.3600 10.1163
50.3700 6.6722
50.3800 10.9441
50.3900 14.6517
50.4000 9.2187
50.4100 7.7465
50.4200 7.5908
50.4300 10.1943
50.4400 4.8423
50.4500 12.9648
50.4600 11.3522
50.4700 9.5239
50.4800 14.4529
50.4900 7.1298
50.5000 10.2418
50.5100 4.1188
50.5200 7.7081
50.5300 10.0274
50.5400 10.2674
50.5500 8.0366
50.5600 8.6752
50.5700 6.1392
50.5800 7.0302
50.5900 15.0729
50.6000 12.8361
50.6100 13.6749
50.6200 14.2569
50.6300 10.5077
50.6400 11.4999
50.6500 9.3466
50.6600 11.7616
50.6700 13.2589
50.6800 11.4062
50.6900 8.4850
50.7000 6.2763
50.7100 10.1881
50.7200 4.9822
50.7300 4.6053
50.7400 6.2390
50.7500 14.3377
50.7600 6.5689
50.7700 11.1297
50.7800 4.9817
50.7900 5.3290
50.8000 5.8825
50.8100 6.2378
50.8200 4.9834
50.8300 8.3642
50.8400 7.5687
50.8500 12.2569
50.8600 11.6675
50.8700 11.7383
50.8800 9.1322
50.8900 6.8791
50.9000 9.7309
50.9100 11.8709
50.9200 14.8701
50.9300 5.2540
50.9400 7.5812
50.9500 12.0464
50.9600 8.4575
50.9700 5.4184
50.9800 6.2255
50.9900 6.4640
51.0000 8.0211
51.0100 9.4960
51.0200 11.7334
51.0300 12.4305
51.0400 10.9404
51.0500 16.6822
51.0600 9.9106
51.0700 11.3296
51.0800 9.6326
51.0900 9.7287
51.1000 9.9241
51.1100 9.3690
51.1200 11.1771
51.1300 10.1562
51.1400 10.8654
51.1500 11.6132
51.1600 11.4413
51.1700 10.3544
51.1800 7.7040
51.1900 8.8269
51.2000 9.5793
51.2100 7.5929
51.2200 16.9470
51.2300 11.2175
51.2400 12.7342
51.2500 10.1528
51.2600 11.5380
51.2700 7.3557
51.2800 9.1784
51.2900 7.3520
51.3000 6.8461
51.3100 9.3342
51.3200 8.4514
51.3300 8.8434
51.3400 9.1642
51.3500 6.1654
51.3600 8.7780
51.3700 3.4388
51.3800 8.3615
51.3900 8.8133
51.4000 6.1758
51.4100 6.0767
51.4200 13.0641
51.4300 4.8978
51.4400 9.9479
51.4500 6.9699
51.4600 7.1000
51.4700 7.3004
51.4800 10.7524
51.4900 8.3778
51.5000 8.1119
51.5100 7.6633
51.5200 12.5834
51.5300 7.1182
51.5400 6.4226
51.5500 7.7996
51.5600 4.8703
51.5700 15.3583
51.5800 12.3605
51.5900 6.3552
51.6000 10.0225
51.6100 7.5255
51.6200 6.3718
51.6300 7.7346
51.6400 8.0120
51.6500 10.2274
51.6600 6.7036
51.6700 7.6387
51.6800 13.9735
51.6900 9.7717
51.7000 9.3348
51.7100 7.2987
51.7200 7.7370
51.7300 12.5694
51.7400 5.4167
51.7500 9.2517
51.7600 10.6381
51.7700 10.0365
51.7800 8.6195
51.7900 7.1988
51.8000 7.8835
51.8100 9.3778
51.8200 7.7444
51.8300 7.7789
51.8400 11.8605
51.8500 12.1421
51.8600 9.6568
51.8700 5.3716
51.8800 6.7308
51.8900 8.3505
51.9000 9.5152
51.9100 7.6283
51.9200 12.2638
51.9300 5.5546
51.9400 7.1784
51.9500 7.6525
51.9600 6.5760
51.9700 7.2893
51.9800 10.7403
51.9900 7.9657
52.0000 16.3593
52.0100 11.2294
52.0200 7.2385
52.0300 10.4868
52.0400 11.0349
52.0500 7.9634
52.0600 8.7784
52.0700 10.9042
52.0800 8.8562
52.0900 10.6065
52.1000 8.5601
52.1100 9.7640
52.1200 8.4848
52.1300 8.1250
52.1400 6.7135
52.1500 11.5592
52.1600 3.1846
52.1700 5.2740
52.1800 7.8447
52.1900 11.3888
52.2000 12.2569
52.2100 7.4427
52.2200 8.1523
52.2300 6.6230
52.2400 11.6586
52.2500 12.1521
52.2600 6.2861
52.2700 13.8087
52.2800 13.4264
52.2900 7.4527
52.3000 12.2845
52.3100 10.3608
52.3200 15.5046
52.3300 11.2116
52.3400 12.6836
52.3500 8.1445
52.3600 13.5392
52.3700 12.1229
52.3800 7.2133
52.3900 12.7806
52.4000 9.0372
52.4100 9.3948
52.4200 8.3010
52.4300 6.9108
52.4400 10.6472
52.4500 9.7853
52.4600 13.6611
52.4700 12.6916
52.4800 6.9096
52.4900 9.9234
52.5000 13.9215
52.5100 9.0024
52.5200 6.8773
52.5300 11.3575
52.5400 6.3228
52.5500 9.5381
52.5600 9.4491
52.5700 6.8255
52.5800 10.8719
52.5900 7.2508
52.6000 6.7847
52.6100 6.3453
52.6200 9.6686
52.6300 10.3854
52.6400 9.3429
52.6500 5.9884
52.6600 9.7575
52.6700 3.9314
52.6800 15.2714
52.6900 9.0635
52.7000 17.3245
52.7100 12.9705
52.7200 7.7053
52.7300 11.9115
52.7400 16.1647
52.7500 16.4903
52.7600 11.6859
52.7700 6.6468
52.7800 7.9734
52.7900 8.1504
52.8000 9.1345
52.8100 8.6815
52.8200 8.3933
52.8300 13.6027
52.8400 9.6669
52.8500 9.5781
52.8600 9.7217
52.8700 4.4557
52.8800 10.7076
52.8900 12.2169
52.9000 8.2438
52.9100 2.5833
52.9200 9.2117
52.9300 6.0885
52.9400 7.3975
52.9500 6.3718
52.9600 6.4188
52.9700 5.2583
52.9800 11.1790
52.9900 2.7716
53.0000 12.0247
53.0100 8.4086
53.0200 10.0462
53.0300 6.4235
53.0400 10.2609
53.0500 7.9731
53.0600 8.8107
53.0700 6.9485
53.0800 6.5264
53.0900 9.6312
53.1000 14.0790
53.1100 9.4173
53.1200 13.4498
53.1300 6.6307
53.1400 15.1967
53.1500 9.3127
53.1600 8.1681
53.1700 13.1341
53.1800 10.9315
53.1900 10.8429
53.2000 12.4073
53.2100 9.5172
53.2200 7.0875
53.2300 6.6046
53.2400 11.4697
53.2500 6.2847
53.2600 5.5793
53.2700 10.4057
53.2800 6.0488
53.2900 9.2916
53.3000 8.3293
53.3100 6.9406
53.3200 9.6277
53.3300 12.5297
53.3400 6.7642
53.3500 6.5113
53.3600 9.8733
53.3700 10.7963
53.3800 6.0623
53.3900 5.3782
53.4000 18.2577
53.4100 11.2057
53.4200 8.5045
53.4300 14.9320
53.4400 10.8133
53.4500 13.2884
53.4600 12.4868
53.4700 10.7813
53.4800 10.5792
53.4900 7.5318
53.5000 14.2496
53.5100 8.4633
53.5200 16.4817
53.5300 12.8498
53.5400 7.3197
53.5500 11.9262
53.5600 7.2093
53.5700 6.4898
53.5800 7.9678
53.5900 8.4836
53.6000 11.1051
53.6100 10.6328
53.6200 10.1465
53.6300 7.6102
53.6400 11.9345
53.6500 10.5541
53.6600 12.3556
53.6700 11.3117
53.6800 12.4786
53.6900 15.2293
53.7000 3.8116
53.7100 18.9544
53.7200 6.7991
53.7300 13.2168
53.7400 7.5331
53.7500 19.6238
53.7600 7.4535
53.7700 9.5845
53.7800 13.2454
53.7900 11.6608
53.8000 7.1050
53.8100 8.4107
53.8200 6.5574
53.8300 9.4020
53.8400 10.6719
53.8500 10.5315
53.8600 10.3368
53.8700 12.6799
53.8800 13.5948
53.8900 8.0903
53.9000 4.6287
53.9100 9.1835
53.9200 10.5408
53.9300 13.5877
53.9400 8.3574
53.9500 11.4874
53.9600 9.5013
53.9700 10.9444
53.9800 12.7532
53.9900 8.0136
54.0000 8.7804
54.0100 9.8113
54.0200 7.6344
54.0300 12.1462
54.0400 11.1301
54.0500 4.9400
54.0600 11.0394
54.0700 6.1859
54.0800 6.7362
54.0900 10.9014
54.1000 8.8855
54.1100 8.0801
54.1200 10.0878
54.1300 11.3529
54.1400 7.5847
54.1500 10.4688
54.1600 6.2110
54.1700 7.9522
54.1800 6.8522
54.1900 10.8035
54.2000 13.6263
54.2100 9.8463
54.2200 10.1596
54.2300 12.7387
54.2400 12.1005
54.2500 11.1606
54.2600 4.1209
54.2700 3.7278
54.2800 8.2587
54.2900 10.1651
54.3000 6.2791
54.3100 10.7696
54.3200 10.0404
54.3300 2.6050
54.3400 5.7550
54.3500 5.4508
54.3600 8.1005
54.3700 4.7913
54.3800 5.7087
54.3900 8.0658
54.4000 10.0690
54.4100 7.9502
54.4200 10.9222
54.4300 6.9985
54.4400 14.7404
54.4500 7.9519
54.4600 7.2921
54.4700 9.0310
54.4800 9.2268
54.4900 5.9005
54.5000 8.5853
54.5100 3.8205
54.5200 5.4063
54.5300 9.4001
54.5400 10.9257
54.5500 6.9888
54.5600 6.0441
54.5700 9.4309
54.5800 10.8823
54.5900 2.6773
54.6000 7.2516
54.6100 5.2982
54.6200 9.5464
54.6300 5.6920
54.6400 5.9150
54.6500 6.1828
54.6600 6.1486
54.6700 9.0626
54.6800 6.8879
54.6900 14.2221
54.7000 6.7834
54.7100 6.7255
54.7200 9.4858
54.7300 5.6113
54.7400 10.6473
54.7500 8.3212
54.7600 8.5825
54.7700 11.2866
54.7800 7.6330
54.7900 9.2460
54.8000 10.1978
54.8100 7.9331
54.8200 8.8050
54.8300 10.6031
54.8400 8.3220
54.8500 9.1447
54.8600 9.8556
54.8700 10.9430
54.8800 9.5417
54.8900 7.3548
54.9000 12.5258
54.9100 8.0707
54.9200 7.3533
54.9300 6.6878
54.9400 5.3723
54.9500 7.1197
54.9600 11.7269
54.9700 14.4319
54.9800 6.8963
54.9900 8.2083
55.0000 7.3234
55.0100 8.7720
55.0200 9.1871
55.0300 6.0825
55.0400 7.2077
55.0500 9.5699
55.0600 10.8975
55.0700 10.4239
55.0800 14.3783
55.0900 3.4921
55.1000 11.9315
55.1100 5.4828
55.1200 13.5103
55.1300 3.0323
55.1400 5.5195
55.1500 3.2176
55.1600 5.8796
55.1700 9.3270
55.1800 9.4136
55.1900 3.6278
55.2000 11.0920
55.2100 5.0981
55.2200 3.2060
55.2300 6.6329
55.2400 10.6227
55.2500 7.1268
55.2600 4.9478
55.2700 13.0754
55.2800 6.6593
55.2900 7.9210
55.3000 7.1853
55.3100 7.8954
55.3200 5.6697
55.3300 9.6933
55.3400 7.0721
55.3500 7.9873
55.3600 4.6942
55.3700 5.7323
55.3800 11.9032
55.3900 10.5840
55.4000 6.1120
55.4100 9.3613
55.4200 4.2634
55.4300 6.5937
55.4400 10.4384
55.4500 3.9025
55.4600 5.2194
55.4700 6.9667
55.4800 5.8292
55.4900 6.5582
55.5000 6.2081
55.5100 5.4715
55.5200 6.4955
55.5300 8.2739
55.5400 11.3562
55.5500 11.8146
55.5600 12.7249
55.5700 11.1081
55.5800 8.0373
55.5900 7.9913
55.6000 5.3328
55.6100 8.6712
55.6200 5.6049
55.6300 7.4463
55.6400 12.6834
55.6500 10.0002
55.6600 5.8626
55.6700 10.1758
55.6800 7.7569
55.6900 9.8763
55.7000 5.9943
55.7100 8.2621
55.7200 5.0559
55.7300 8.4722
55.7400 6.8782
55.7500 8.6069
55.7600 8.6576
55.7700 9.1268
55.7800 6.1888
55.7900 7.1786
55.8000 5.4107
55.8100 8.5197
55.8200 5.5134
55.8300 8.6493
55.8400 9.5972
55.8500 9.9895
55.8600 6.8067
55.8700 9.8518
55.8800 7.3653
55.8900 5.2039
55.9000 6.2254
55.9100 8.2501
55.9200 8.6671
55.9300 6.0281
55.9400 4.9506
55.9500 9.6727
55.9600 9.1287
55.9700 8.6067
55.9800 4.6433
55.9900 7.6813
56.0000 7.0724
56.0100 3.1777
56.0200 11.8164
56.0300 7.4977
56.0400 8.2132
56.0500 4.1384
56.0600 5.0378
56.0700 8.1074
56.0800 5.6876
56.0900 6.6570
56.1000 8.0342
56.1100 9.3572
56.1200 6.6390
56.1300 6.6099
56.1400 5.7962
56.1500 10.0556
56.1600 6.0727
56.1700 7.8244
56.1800 6.1074
56.1900 9.3717
56.2000 10.8637
56.2100 7.7203
56.2200 11.5615
56.2300 10.1639
56.2400 5.0386
56.2500 7.9895
56.2600 9.9383
56.2700 7.1725
56.2800 6.3473
56.2900 11.6471
56.3000 4.5604
56.3100 5.7655
56.3200 5.9563
56.3300 6.5773
56.3400 8.6478
56.3500 6.6115
56.3600 3.6156
56.3700 14.6321
56.3800 7.7571
56.3900 5.5619
56.4000 4.1719
56.4100 5.3298
56.4200 10.6844
56.4300 7.6703
56.4400 9.3625
56.4500 7.8843
56.4600 10.2356
56.4700 8.5959
56.4800 2.3270
56.4900 10.5601
56.5000 5.9970
56.5100 4.8955
56.5200 5.3136
56.5300 9.6826
56.5400 8.0409
56.5500 5.5310
56.5600 8.2119
56.5700 12.8263
56.5800 10.0274
56.5900 11.6759
56.6000 10.8835
56.6100 9.0478
56.6200 10.6054
56.6300 10.7843
56.6400 11.8350
56.6500 3.3502
56.6600 8.3228
56.6700 7.3290
56.6800 10.9284
56.6900 8.4890
56.7000 10.9730
56.7100 9.6479
56.7200 8.0179
56.7300 7.4714
56.7400 6.1162
56.7500 9.6856
56.7600 8.6894
56.7700 9.5247
56.7800 7.4425
56.7900 16.7823
56.8000 9.9597
56.8100 10.6203
56.8200 9.9188
56.8300 18.3616
56.8400 7.4941
56.8500 9.0485
56.8600 6.6385
56.8700 8.5217
56.8800 9.8847
56.8900 4.5707
56.9000 10.4289
56.9100 10.8102
56.9200 9.6203
56.9300 8.5924
56.9400 8.8226
56.9500 6.3867
56.9600 13.1791
56.9700 8.6210
56.9800 10.7252
56.9900 3.0198
57.0000 4.4393
57.0100 7.2315
57.0200 6.2583
57.0300 7.4310
57.0400 9.2960
57.0500 12.5949
57.0600 7.9295
57.0700 10.6919
57.0800 9.7825
57.0900 9.0328
57.1000 5.7129
57.1100 11.3433
57.1200 7.0711
57.1300 8.2872
57.1400 12.1226
57.1500 10.1736
57.1600 9.3793
57.1700 5.5750
57.1800 7.4239
57.1900 4.8193
57.2000 9.9196
57.2100 12.3506
57.2200 9.3232
57.2300 7.4524
57.2400 7.3916
57.2500 6.1249
57.2600 7.8319
57.2700 5.2726
57.2800 13.1910
57.2900 9.5344
57.3000 10.6081
57.3100 9.3094
57.3200 7.5281
57.3300 11.8205
57.3400 9.9779
57.3500 8.3451
57.3600 11.5350
57.3700 11.1870
57.3800 9.6884
57.3900 8.8026
57.4000 7.6329
57.4100 7.3572
57.4200 9.9594
57.4300 8.1802
57.4400 7.9937
57.4500 7.2516
57.4600 4.9551
57.4700 6.2159
57.4800 14.7802
57.4900 4.8825
57.5000 9.6623
57.5100 7.7226
57.5200 9.3408
57.5300 7.4109
57.5400 11.2221
57.5500 9.9976
57.5600 9.3827
57.5700 4.8815
57.5800 10.6216
57.5900 9.5671
57.6000 13.6164
57.6100 10.5602
57.6200 15.3195
57.6300 8.9242
57.6400 10.3769
57.6500 10.4006
57.6600 8.9755
57.6700 6.2575
57.6800 7.8992
57.6900 4.7603
57.7000 4.7285
57.7100 8.9439
57.7200 10.4132
57.7300 6.4475
57.7400 7.8038
57.7500 8.8018
57.7600 12.4624
57.7700 3.3746
57.7800 5.5970
57.7900 4.8049
57.8000 10.2435
57.8100 7.2530
57.8200 11.0391
57.8300 5.2710
57.8400 10.3932
57.8500 5.3995
57.8600 10.8267
57.8700 6.6428
57.8800 8.0385
57.8900 8.8072
57.9000 4.7982
57.9100 5.9030
57.9200 7.5508
57.9300 10.6154
57.9400 10.7693
57.9500 3.7152
57.9600 11.1829
57.9700 7.8709
57.9800 10.7063
57.9900 11.6715
58.0000 9.8847
58.0100 10.9097
58.0200 5.9287
58.0300 16.5485
58.0400 7.6714
58.0500 14.5010
58.0600 7.7342
58.0700 6.9878
58.0800 5.9784
58.0900 10.0488
58.1000 5.8686
58.1100 6.9725
58.1200 6.4552
58.1300 8.8304
58.1400 10.2686
58.1500 7.0657
58.1600 11.5373
58.1700 10.4011
58.1800 10.4041
58.1900 3.0618
58.2000 7.4132
58.2100 6.7991
58.2200 7.6342
58.2300 6.9982
58.2400 10.9954
58.2500 4.6304
58.2600 7.6210
58.2700 13.2655
58.2800 5.1832
58.2900 9.4536
58.3000 13.9628
58.3100 8.5064
58.3200 10.5718
58.3300 11.8568
58.3400 12.3222
58.3500 5.9939
58.3600 8.6855
58.3700 10.6450
58.3800 8.4914
58.3900 5.7055
58.4000 12.4702
58.4100 9.0851
58.4200 6.5008
58.4300 8.9958
58.4400 5.1835
58.4500 6.0524
58.4600 4.2886
58.4700 8.5409
58.4800 7.5189
58.4900 10.1549
58.5000 2.6875
58.5100 4.5744
58.5200 9.4717
58.5300 9.8965
58.5400 11.8770
58.5500 7.5718
58.5600 7.7225
58.5700 9.9814
58.5800 8.4618
58.5900 13.2686
58.6000 10.1800
58.6100 11.9041
58.6200 10.1926
58.6300 9.2695
58.6400 8.9625
58.6500 6.6382
58.6600 7.3866
58.6700 2.7858
58.6800 13.3040
58.6900 9.8339
58.7000 14.7858
58.7100 13.9621
58.7200 14.4946
58.7300 17.2470
58.7400 13.4990
58.7500 14.0567
58.7600 9.0993
58.7700 6.6847
58.7800 13.6827
58.7900 9.3054
58.8000 9.3517
58.8100 3.6361
58.8200 8.7941
58.8300 10.9569
58.8400 7.2357
58.8500 4.9413
58.8600 6.6845
58.8700 5.7734
58.8800 8.0523
58.8900 6.6776
58.9000 9.3536
58.9100 5.3650
58.9200 8.1880
58.9300 9.1371
58.9400 4.8873
58.9500 10.0565
58.9600 5.8478
58.9700 7.9840
58.9800 11.2629
58.9900 8.8065
59.0000 7.5638
59.0100 9.3750
59.0200 7.6439
59.0300 12.2581
59.0400 3.6666
59.0500 7.3032
59.0600 7.0201
59.0700 9.4930
59.0800 5.8087
59.0900 5.6233
59.1000 12.2099
59.1100 6.4733
59.1200 7.2399
59.1300 3.6503
59.1400 9.3610
59.1500 6.1949
59.1600 6.2294
59.1700 5.2967
59.1800 5.1519
59.1900 9.1766
59.2000 6.8085
59.2100 7.0096
59.2200 5.6578
59.2300 8.0527
59.2400 4.3403
59.2500 7.2274
59.2600 12.6391
59.2700 15.2872
59.2800 8.6349
59.2900 6.0784
59.3000 4.1688
59.3100 4.9247
59.3200 8.2298
59.3300 6.4215
59.3400 10.3714
59.3500 4.7939
59.3600 3.2396
59.3700 6.8000
59.3800 8.0499
59.3900 4.8188
59.4000 5.5924
59.4100 7.5469
59.4200 11.0137
59.4300 5.1333
59.4400 6.1009
59.4500 9.1839
59.4600 13.2325
59.4700 5.1815
59.4800 7.5195
59.4900 9.4503
59.5000 15.9548
59.5100 9.2604
59.5200 15.2235
59.5300 11.1635
59.5400 16.2412
59.5500 6.0640
59.5600 8.5759
59.5700 9.5574
59.5800 7.8643
59.5900 5.1995
59.6000 6.5336
59.6100 12.4949
59.6200 11.9280
59.6300 12.1604
59.6400 7.7227
59.6500 5.5255
59.6600 16.9197
59.6700 15.1846
59.6800 14.1712
59.6900 7.4866
59.7000 9.2517
59.7100 8.9421
59.7200 13.4266
59.7300 3.2328
59.7400 9.1748
59.7500 9.7619
59.7600 10.5028
59.7700 7.2425
59.7800 11.5709
59.7900 8.0955
59.8000 11.9240
59.8100 10.5397
59.8200 7.1689
59.8300 11.8712
59.8400 6.0018
59.8500 9.4145
59.8600 13.1250
59.8700 7.1552
59.8800 15.8061
59.8900 8.9375
59.9000 12.1049
59.9100 12.1702
59.9200 13.7737
59.9300 13.8281
59.9400 8.0036
59.9500 9.0132
59.9600 6.9621
59.9700 10.5833
59.9800 10.4136
59.9900 8.6093
60.0000 7.1457
60.0100 11.0102
60.0200 8.2366
60.0300 7.4843
60.0400 7.2939
60.0500 6.7696
60.0600 10.6807
60.0700 8.4934
60.0800 12.6556
60.0900 7.0829
60.1000 7.9186
60.1100 8.5772
60.1200 11.3591
60.1300 9.6330
60.1400 11.0358
60.1500 13.6678
60.1600 9.3392
60.1700 17.3257
60.1800 8.7329
60.1900 18.3560
60.2000 6.6381
60.2100 8.2256
60.2200 14.4458
60.2300 8.6616
60.2400 8.7096
60.2500 7.3326
60.2600 7.7682
60.2700 9.5497
60.2800 9.3108
60.2900 8.0932
60.3000 5.2301
60.3100 6.8297
60.3200 10.3008
60.3300 5.6432
60.3400 3.0400
60.3500 13.0598
60.3600 8.2011
60.3700 5.0467
60.3800 11.6176
60.3900 6.6912
60.4000 12.4059
60.4100 5.7852
60.4200 8.8038
60.4300 9.5041
60.4400 11.5688
60.4500 5.3170
60.4600 6.3079
60.4700 7.2949
60.4800 14.7324
60.4900 9.9917
60.5000 14.1222
60.5100 8.6929
60.5200 12.6315
60.5300 11.6118
60.5400 10.5729
60.5500 5.3057
60.5600 12.2331
60.5700 7.7150
60.5800 5.3776
60.5900 8.3474
60.6000 9.1977
60.6100 5.1060
60.6200 11.7616
60.6300 8.4980
60.6400 6.1149
60.6500 3.8379
60.6600 9.4575
60.6700 6.4401
60.6800 4.1368
60.6900 10.5101
60.7000 4.2686
60.7100 8.5749
60.7200 5.7399
60.7300 10.1573
60.7400 11.7449
60.7500 9.2546
60.7600 11.5677
60.7700 8.2612
60.7800 7.1172
60.7900 7.8114
60.8000 7.1198
60.8100 4.0944
60.8200 8.2355
60.8300 11.9664
60.8400 5.6077
60.8500 5.4967
60.8600 6.7589
60.8700 7.3173
60.8800 9.1061
60.8900 10.6893
60.9000 13.8883
60.9100 11.7172
60.9200 11.6705
60.9300 3.3029
60.9400 10.8006
60.9500 6.9671
60.9600 7.7323
60.9700 7.4912
60.9800 9.9483
60.9900 6.3752
61.0000 5.8138
61.0100 5.0925
61.0200 4.3097
61.0300 9.6390
61.0400 11.3311
61.0500 16.6110
61.0600 13.3636
61.0700 9.6965
61.0800 6.0303
61.0900 6.1685
61.1000 8.6302
61.1100 11.2280
61.1200 7.6668
61.1300 9.4563
61.1400 7.2734
61.1500 9.0998
61.1600 8.5527
61.1700 8.8843
61.1800 8.0449
61.1900 6.8461
61.2000 7.6547
61.2100 4.5036
61.2200 5.1907
61.2300 7.0727
61.2400 10.1043
61.2500 12.1973
61.2600 9.7046
61.2700 8.5778
61.2800 8.4757
61.2900 3.7189
61.3000 8.6019
61.3100 12.4830
61.3200 8.5573
61.3300 8.8220
61.3400 7.3584
61.3500 6.4202
61.3600 8.6548
61.3700 10.7690
61.3800 13.3468
61.3900 7.5314
61.4000 15.0487
61.4100 7.7001
61.4200 7.9810
61.4300 6.8528
61.4400 4.7788
61.4500 12.3203
61.4600 9.4953
61.4700 12.4043
61.4800 9.7403
61.4900 8.4205
61.5000 9.9558
61.5100 8.0983
61.5200 6.9123
61.5300 10.4114
61.5400 10.5093
61.5500 6.7459
61.5600 6.1850
61.5700 4.1403
61.5800 14.9852
61.5900 9.2972
61.6000 8.9923
61.6100 5.0454
61.6200 5.0055
61.6300 11.0255
61.6400 9.8760
61.6500 11.1630
61.6600 8.6419
61.6700 9.1738
61.6800 8.5259
61.6900 8.0207
61.7000 8.9200
61.7100 7.4689
61.7200 5.3451
61.7300 7.6371
61.7400 6.0148
61.7500 4.4835
61.7600 9.0359
61.7700 10.6324
61.7800 11.3035
61.7900 11.1930
61.8000 12.3815
61.8100 3.7775
61.8200 10.7441
61.8300 6.8728
61.8400 8.5069
61.8500 5.9354
61.8600 5.1342
61.8700 5.7476
61.8800 15.3364
61.8900 12.2086
61.9000 7.2631
61.9100 9.3242
61.9200 8.0677
61.9300 9.4518
61.9400 7.7193
61.9500 10.9557
61.9600 9.2075
61.9700 5.7540
61.9800 5.1577
61.9900 3.5683
62.0000 4.2355
62.0100 7.5347
62.0200 5.0618
62.0300 7.2128
62.0400 5.3431
62.0500 4.5497
62.0600 8.1173
62.0700 10.6458
62.0800 10.6464
62.0900 6.7680
62.1000 5.2258
62.1100 3.4025
62.1200 7.6384
62.1300 8.8226
62.1400 9.9040
62.1500 9.2708
62.1600 13.5018
62.1700 7.8482
62.1800 16.4911
62.1900 6.8837
62.2000 15.1148
62.2100 6.8195
62.2200 11.1434
62.2300 4.5157
62.2400 8.2597
62.2500 6.5482
62.2600 5.1185
62.2700 11.7912
62.2800 7.5546
62.2900 10.2632
62.3000 6.6447
62.3100 11.8872
62.3200 7.1319
62.3300 14.2894
62.3400 6.6197
62.3500 9.1047
62.3600 5.3080
62.3700 7.3957
62.3800 6.3199
62.3900 8.0655
62.4000 11.4780
62.4100 9.3100
62.4200 8.4280
62.4300 9.0875
62.4400 6.7551
62.4500 10.2798
62.4600 10.2481
62.4700 7.0431
62.4800 6.5555
62.4900 7.3852
62.5000 7.8536
62.5100 6.6900
62.5200 12.6716
62.5300 6.0753
62.5400 8.6775
62.5500 7.9722
62.5600 6.0563
62.5700 8.9377
62.5800 12.8655
62.5900 11.6678
62.6000 11.6718
62.6100 10.1540
62.6200 5.7375
62.6300 6.6226
62.6400 7.3550
62.6500 7.3159
62.6600 7.1858
62.6700 10.8604
62.6800 8.1504
62.6900 9.1863
62.7000 10.7987
62.7100 11.2831
62.7200 5.1479
62.7300 6.3315
62.7400 10.1261
62.7500 10.6668
62.7600 11.8127
62.7700 7.0944
62.7800 12.0258
62.7900 8.5350
62.8000 12.6549
62.8100 3.9514
62.8200 10.1164
62.8300 13.2331
62.8400 9.7339
62.8500 7.1405
62.8600 6.1971
62.8700 6.6902
62.8800 9.5273
62.8900 4.8880
62.9000 4.3317
62.9100 6.7721
62.9200 10.4885
62.9300 4.2861
62.9400 8.0461
62.9500 5.3964
62.9600 7.4671
62.9700 6.3827
62.9800 9.4670
62.9900 12.1597
63.0000 6.2504
63.0100 6.6660
63.0200 4.5263
63.0300 8.1664
63.0400 8.4257
63.0500 5.3535
63.0600 17.7186
63.0700 14.7791
63.0800 7.8609
63.0900 9.1024
63.1000 7.5243
63.1100 9.2144
63.1200 7.9627
63.1300 6.3322
63.1400 4.4043
63.1500 9.2648
63.1600 9.8934
63.1700 6.6525
63.1800 4.9579
63.1900 8.6662
63.2000 8.2505
63.2100 6.3285
63.2200 9.7105
63.2300 4.2154
63.2400 7.6480
63.2500 4.4702
63.2600 4.3390
63.2700 9.6565
63.2800 4.1032
63.2900 3.2140
63.3000 2.8669
63.3100 4.6055
63.3200 2.6471
63.3300 5.7929
63.3400 5.3138
63.3500 9.8431
63.3600 9.3694
63.3700 10.1716
63.3800 7.8602
63.3900 7.6919
63.4000 10.5280
63.4100 7.5460
63.4200 7.4370
63.4300 8.6533
63.4400 9.9396
63.4500 5.3461
63.4600 8.2809
63.4700 8.8905
63.4800 10.9005
63.4900 9.5453
63.5000 8.7027
63.5100 9.1561
63.5200 8.1099
63.5300 11.3311
63.5400 10.3525
63.5500 7.4596
63.5600 6.9461
63.5700 5.4447
63.5800 8.5026
63.5900 6.7145
63.6000 6.5171
63.6100 8.5140
63.6200 6.2304
63.6300 8.5463
63.6400 5.6094
63.6500 10.5584
63.6600 8.4242
63.6700 5.2664
63.6800 9.4177
63.6900 9.1361
63.7000 4.4525
63.7100 6.5606
63.7200 9.1345
63.7300 10.1476
63.7400 8.8808
63.7500 5.5299
63.7600 10.0992
63.7700 18.5519
63.7800 7.4886
63.7900 6.5377
63.8000 10.6503
63.8100 6.2048
63.8200 6.8748
63.8300 5.2660
63.8400 6.7727
63.8500 6.4289
63.8600 8.0694
63.8700 9.9014
63.8800 11.7166
63.8900 9.3041
63.9000 8.0745
63.9100 7.8049
63.9200 12.2108
63.9300 7.6072
63.9400 7.0691
63.9500 12.3070
63.9600 7.9621
63.9700 3.1578
63.9800 7.7347
63.9900 7.7423
64.0000 10.0493
64.0100 3.1844
64.0200 7.4594
64.0300 7.0662
64.0400 4.1588
64.0500 6.9638
64.0600 8.5251
64.0700 8.3014
64.0800 8.4998
64.0900 7.5850
64.1000 7.3267
64.1100 8.4542
64.1200 9.5472
64.1300 13.5436
64.1400 9.4467
64.1500 8.0413
64.1600 10.9893
64.1700 7.7336
64.1800 9.7396
64.1900 8.5799
64.2000 8.4617
64.2100 8.2443
64.2200 10.3251
64.2300 13.1249
64.2400 7.6483
64.2500 10.1818
64.2600 9.2881
64.2700 6.0047
64.2800 10.8074
64.2900 12.8798
64.3000 12.2780
64.3100 11.2918
64.3200 10.1671
64.3300 12.1626
64.3400 10.1066
64.3500 14.2128
64.3600 10.8850
64.3700 11.3043
64.3800 6.6445
64.3900 8.1013
64.4000 10.0767
64.4100 6.8544
64.4200 11.3119
64.4300 6.8304
64.4400 9.1413
64.4500 10.7384
64.4600 8.0148
64.4700 7.7176
64.4800 4.2275
64.4900 12.1698
64.5000 3.9854
64.5100 9.5386
64.5200 5.2583
64.5300 12.0103
64.5400 4.8060
64.5500 8.5484
64.5600 10.7830
64.5700 10.3717
64.5800 8.4911
64.5900 7.3613
64.6000 9.8701
64.6100 4.9748
64.6200 7.3858
64.6300 3.4194
64.6400 7.3822
64.6500 9.6985
64.6600 10.6592
64.6700 6.0906
64.6800 12.5546
64.6900 4.7850
64.7000 10.6740
64.7100 12.0376
64.7200 15.4324
64.7300 8.2129
64.7400 14.9196
64.7500 6.3715
64.7600 7.5316
64.7700 10.7061
64.7800 9.2963
64.7900 10.6751
64.8000 6.8587
64.8100 9.5960
64.8200 7.8814
64.8300 8.5302
64.8400 4.3872
64.8500 10.7192
64.8600 8.0357
64.8700 4.4925
64.8800 8.4903
64.8900 8.7800
64.9000 8.4198
64.9100 10.4165
64.9200 8.2259
64.9300 9.8273
64.9400 5.9360
64.9500 15.5083
64.9600 9.9298
64.9700 10.4929
64.9800 5.1685
64.9900 11.7124
65.0000 2.7308
65.0100 10.3348
65.0200 10.4064
65.0300 11.7894
65.0400 6.7809
65.0500 13.6055
65.0600 10.3927
65.0700 11.9942
65.0800 7.5142
65.0900 7.6337
65.1000 7.5477
65.1100 8.0714
65.1200 11.6534
65.1300 7.9816
65.1400 6.0213
65.1500 10.1824
65.1600 6.1795
65.1700 7.9000
65.1800 5.9687
65.1900 9.3953
65.2000 9.2317
65.2100 7.8611
65.2200 13.8027
65.2300 2.9977
65.2400 8.1296
65.2500 8.1648
65.2600 7.1044
65.2700 13.3407
65.2800 6.9176
65.2900 9.4968
65.3000 11.3975
65.3100 9.6112
65.3200 12.3192
65.3300 13.2222
65.3400 8.7048
65.3500 10.8878
65.3600 8.6929
65.3700 10.2230
65.3800 8.5722
65.3900 7.6076
65.4000 7.7387
65.4100 13.1868
65.4200 11.8569
65.4300 10.5100
65.4400 8.3387
65.4500 7.8704
65.4600 4.8182
65.4700 4.2435
65.4800 13.1616
65.4900 4.7488
65.5000 9.2864
65.5100 10.0842
65.5200 15.0410
65.5300 13.2548
65.5400 15.1475
65.5500 18.8295
65.5600 19.0344
65.5700 15.1188
65.5800 16.0774
65.5900 20.4385
65.6000 19.9530
65.6100 16.2469
65.6200 17.7998
65.6300 19.8059
65.6400 16.2728
65.6500 19.6693
65.6600 21.6433
65.6700 26.6734
65.6800 30.9330
65.6900 27.8894
65.7000 25.6671
65.7100 23.8077
65.7200 33.8722
65.7300 31.8551
65.7400 26.9587
65.7500 40.1429
65.7600 35.5898
65.7700 39.6906
65.7800 41.3410
65.7900 35.5241
65.8000 37.9529
65.8100 36.7655
65.8200 34.4773
65.8300 38.0482
65.8400 25.9464
65.8500 34.2773
65.8600 28.8142
65.8700 25.6282
65.8800 20.4351
65.8900 17.1567
65.9000 17.2887
65.9100 21.5560
65.9200 18.6318
65.9300 16.9853
65.9400 15.2322
65.9500 12.8224
65.9600 16.2270
65.9700 11.1325
65.9800 12.3178
65.9900 7.4794
66.0000 15.2035
66.0100 8.4471
66.0200 7.4061
66.0300 12.0896
66.0400 12.9812
66.0500 9.1417
66.0600 8.8853
66.0700 9.7409
66.0800 6.7242
66.0900 10.0254
66.1000 12.0122
66.1100 8.8410
66.1200 10.0365
66.1300 8.9244
66.1400 13.2682
66.1500 12.1431
66.1600 10.9665
66.1700 8.0373
66.1800 3.6797
66.1900 12.4572
66.2000 8.8369
66.2100 5.1293
66.2200 11.0323
66.2300 2.7197
66.2400 10.0155
66.2500 7.8398
66.2600 7.2570
66.2700 4.0449
66.2800 14.1029
66.2900 9.6362
66.3000 10.4105
66.3100 5.6501
66.3200 9.2676
66.3300 10.3139
66.3400 8.8790
66.3500 10.0657
66.3600 14.6027
66.3700 3.9450
66.3800 12.7931
66.3900 5.7850
66.4000 6.5028
66.4100 7.4126
66.4200 9.1676
66.4300 16.3683
66.4400 15.2975
66.4500 11.4878
66.4600 9.7351
66.4700 9.4311
66.4800 8.3564
66.4900 11.5456
66.5000 6.6606
66.5100 9.3434
66.5200 5.8321
66.5300 5.1664
66.5400 4.3686
66.5500 12.0048
66.5600 6.1847
66.5700 4.5296
66.5800 5.8057
66.5900 15.8793
66.6000 10.0985
66.6100 4.1645
66.6200 8.3519
66.6300 11.2617
66.6400 10.1276
66.6500 7.3543
66.6600 8.5123
66.6700 7.3056
66.6800 9.8355
66.6900 11.4987
66.7000 11.7382
66.7100 9.8873
66.7200 9.4791
66.7300 10.1774
66.7400 12.4280
66.7500 8.5421
66.7600 9.5542
66.7700 6.1420
66.7800 12.9196
66.7900 8.5136
66.8000 12.0179
66.8100 8.3074
66.8200 12.8729
66.8300 14.3273
66.8400 9.5814
66.8500 9.5059
66.8600 14.3763
66.8700 10.3980
66.8800 9.0293
66.8900 6.9738
66.9000 10.9928
66.9100 10.9947
66.9200 14.6516
66.9300 13.6411
66.9400 14.7509
66.9500 18.4893
66.9600 12.7826
66.9700 8.1139
66.9800 10.2189
66.9900 11.2421
67.0000 4.6949
67.0100 12.5238
67.0200 6.5999
67.0300 6.0872
67.0400 7.8047
67.0500 4.5383
67.0600 10.9578
67.0700 7.6221
67.0800 12.1768
67.0900 9.3344
67.1000 8.5444
67.1100 8.4661
67.1200 5.2424
67.1300 5.3541
67.1400 5.5864
67.1500 7.4867
67.1600 9.9346
67.1700 7.4216
67.1800 11.7192
67.1900 12.4039
67.2000 4.3726
67.2100 12.8834
67.2200 4.9194
67.2300 10.4640
67.2400 6.7021
67.2500 13.4479
67.2600 2.7222
67.2700 10.8352
67.2800 6.3104
67.2900 12.4537
67.3000 10.3599
67.3100 9.1852
67.3200 12.5046
67.3300 11.4877
67.3400 6.6276
67.3500 5.7740
67.3600 4.7888
67.3700 8.9723
67.3800 8.8704
67.3900 7.4518
67.4000 7.3941
67.4100 10.9984
67.4200 12.6570
67.4300 7.3425
67.4400 3.7188
67.4500 6.7659
67.4600 7.5643
67.4700 7.0956
67.4800 12.9928
67.4900 6.4333
67.5000 8.1219
67.5100 8.1334
67.5200 8.3348
67.5300 4.6660
67.5400 8.2828
67.5500 8.5251
67.5600 4.3175
67.5700 2.7764
67.5800 8.4734
67.5900 13.2124
67.6000 15.2583
67.6100 10.2884
67.6200 10.3992
67.6300 7.8174
67.6400 8.4455
67.6500 10.3622
67.6600 8.1152
67.6700 7.4752
67.6800 6.9715
67.6900 5.3137
67.7000 12.2320
67.7100 6.1364
67.7200 5.4576
67.7300 8.5297
67.7400 6.7097
67.7500 5.8198
67.7600 6.7377
67.7700 5.6438
67.7800 8.6229
67.7900 10.1417
67.8000 12.5035
67.8100 12.6561
67.8200 15.4936
67.8300 14.0392
67.8400 7.0257
67.8500 7.1756
67.8600 5.7808
67.8700 5.0778
67.8800 5.7799
67.8900 4.3183
67.9000 11.5627
67.9100 11.5919
67.9200 10.7955
67.9300 6.7448
67.9400 8.6299
67.9500 7.3847
67.9600 11.5686
67.9700 8.6979
67.9800 9.3305
67.9900 7.7784
68.0000 7.0109
68.0100 16.4390
68.0200 7.8310
68.0300 8.2138
68.0400 5.5456
68.0500 6.7127
68.0600 6.2331
68.0700 8.3630
68.0800 7.4131
68.0900 8.0495
68.1000 10.1611
68.1100 11.8388
68.1200 7.9096
68.1300 13.4002
68.1400 6.7719
68.1500 9.5937
68.1600 6.7173
68.1700 8.9207
68.1800 8.8986
68.1900 12.5451
68.2000 9.5350
68.2100 6.1693
68.2200 11.8445
68.2300 8.7387
68.2400 6.2680
68.2500 9.6807
68.2600 9.4557
68.2700 12.5781
68.2800 10.6497
68.2900 14.2028
68.3000 11.8305
68.3100 13.1234
68.3200 6.6131
68.3300 9.9559
68.3400 15.6347
68.3500 10.0844
68.3600 18.4666
68.3700 7.7409
68.3800 13.7122
68.3900 4.2295
68.4000 10.8985
68.4100 4.4825
68.4200 11.3531
68.4300 8.2261
68.4400 7.1526
68.4500 5.7505
68.4600 9.9363
68.4700 8.6416
68.4800 5.3421
68.4900 3.9268
68.5000 6.9233
68.5100 4.9874
68.5200 6.6937
68.5300 9.0262
68.5400 4.3199
68.5500 7.8197
68.5600 10.7870
68.5700 10.2460
68.5800 8.1421
68.5900 4.4574
68.6000 8.3364
68.6100 8.7969
68.6200 4.9974
68.6300 3.1350
68.6400 8.8764
68.6500 5.4352
68.6600 7.1743
68.6700 7.5210
68.6800 7.9324
68.6900 10.4483
68.7000 7.2458
68.7100 4.8026
68.7200 7.6619
68.7300 7.3009
68.7400 7.6850
68.7500 9.2985
68.7600 8.4246
68.7700 8.7480
68.7800 12.0520
68.7900 9.3478
68.8000 11.0487
68.8100 6.4954
68.8200 13.0739
68.8300 3.9272
68.8400 6.2966
68.8500 3.2158
68.8600 11.4414
68.8700 8.3304
68.8800 6.0064
68.8900 5.1481
68.9000 8.8031
68.9100 6.7611
68.9200 7.8739
68.9300 10.8121
68.9400 6.1582
68.9500 7.3138
68.9600 11.2344
68.9700 7.2309
68.9800 9.3401
68.9900 12.3170
69.0000 7.6867
69.0100 12.4620
69.0200 9.4464
69.0300 4.0720
69.0400 6.1250
69.0500 8.6978
69.0600 12.5942
69.0700 12.9890
69.0800 5.2537
69.0900 12.4814
69.1000 5.6026
69.1100 4.7936
69.1200 7.5384
69.1300 8.0651
69.1400 5.2348
69.1500 10.3510
69.1600 9.2241
69.1700 5.1044
69.1800 6.0846
69.1900 9.5406
69.2000 11.7985
69.2100 8.3596
69.2200 8.7855
69.2300 4.8830
69.2400 8.3314
69.2500 10.3506
69.2600 8.1752
69.2700 4.2767
69.2800 7.9067
69.2900 5.3703
69.3000 15.4624
69.3100 9.6726
69.3200 10.5252
69.3300 9.7513
69.3400 11.1211
69.3500 5.6292
69.3600 5.3921
69.3700 8.0409
69.3800 11.1982
69.3900 8.8312
69.4000 13.4881
69.4100 11.0207
69.4200 18.2783
69.4300 14.2030
69.4400 13.2068
69.4500 5.6917
69.4600 13.5580
69.4700 9.1901
69.4800 12.3367
69.4900 9.2713
69.5000 14.5835
69.5100 3.9843
69.5200 10.9239
69.5300 8.2565
69.5400 12.1974
69.5500 4.3247
69.5600 4.2023
69.5700 9.5188
69.5800 8.8154
69.5900 11.7424
69.6000 5.9971
69.6100 5.2596
69.6200 9.1412
69.6300 9.5637
69.6400 5.7032
69.6500 6.8780
69.6600 6.3439
69.6700 9.8635
69.6800 7.8863
69.6900 4.7584
69.7000 12.7178
69.7100 5.4115
69.7200 5.0379
69.7300 12.1261
69.7400 10.6441
69.7500 6.6207
69.7600 3.0561
69.7700 6.7524
69.7800 4.5811
69.7900 9.2011
69.8000 10.2879
69.8100 10.8364
69.8200 7.3895
69.8300 10.1471
69.8400 3.9033
69.8500 2.6820
69.8600 8.9975
69.8700 9.7900
69.8800 8.6219
69.8900 8.5574
69.9000 9.0841
69.9100 5.9967
69.9200 3.3764
69.9300 7.1517
69.9400 3.6785
69.9500 7.0807
69.9600 9.5447
69.9700 8.8586
69.9800 5.3223
69.9900 6.1956
70.0000 6.1589
70.0100 10.8880
70.0200 11.3296
70.0300 4.5437
70.0400 4.1394
70.0500 2.5866
70.0600 4.8540
70.0700 6.1035
70.0800 4.7906
70.0900 4.7951
70.1000 8.9942
70.1100 4.9391
70.1200 6.0933
70.1300 3.4600
70.1400 8.9838
70.1500 10.9615
70.1600 5.8746
70.1700 7.7741
70.1800 5.1273
70.1900 4.9605
70.2000 7.8534
70.2100 11.6786
70.2200 9.2932
70.2300 5.1988
70.2400 5.1760
70.2500 5.9578
70.2600 2.3140
70.2700 6.9024
70.2800 6.7790
70.2900 13.1812
70.3000 9.2468
70.3100 5.6862
70.3200 8.7075
70.3300 10.1298
70.3400 15.0618
70.3500 8.5966
70.3600 11.0708
70.3700 3.2663
70.3800 10.7303
70.3900 7.9528
70.4000 7.9385
70.4100 12.3489
70.4200 6.3405
70.4300 9.1507
70.4400 7.3618
70.4500 8.8432
70.4600 5.3984
70.4700 8.8976
70.4800 8.3893
70.4900 3.7303
70.5000 10.7376
70.5100 5.9271
70.5200 6.3785
70.5300 9.8072
70.5400 8.6013
70.5500 11.5661
70.5600 6.5288
70.5700 6.6431
70.5800 12.1139
70.5900 9.3223
70.6000 11.8746
70.6100 5.8628
70.6200 9.6452
70.6300 11.2940
70.6400 10.6695
70.6500 7.3649
70.6600 12.5175
70.6700 12.4485
70.6800 11.3844
70.6900 9.4204
70.7000 4.1963
70.7100 6.7729
70.7200 11.6607
70.7300 3.4974
70.7400 10.7468
70.7500 5.4284
70.7600 12.8453
70.7700 5.7936
70.7800 7.1756
70.7900 4.8578
70.8000 3.6715
70.8100 6.8083
70.8200 11.5649
70.8300 8.1506
70.8400 11.0343
70.8500 4.7889
70.8600 7.2047
70.8700 4.1820
70.8800 7.1778
70.8900 3.6249
70.9000 10.3387
70.9100 6.4782
70.9200 4.6173
70.9300 8.6628
70.9400 5.7321
70.9500 5.0492
70.9600 11.0996
70.9700 6.3306
70.9800 8.2018
70.9900 7.2801
71.0000 9.7130
71.0100 7.6437
71.0200 10.3051
71.0300 11.1223
71.0400 12.9702
71.0500 7.4395
71.0600 9.7509
71.0700 4.5098
71.0800 5.4179
71.0900 9.3536
71.1000 7.4474
71.1100 11.3670
71.1200 11.4640
71.1300 10.3221
71.1400 6.3977
71.1500 14.5452
71.1600 7.5473
71.1700 14.3009
71.1800 10.3035
71.1900 7.2294
71.2000 9.6485
71.2100 8.4214
71.2200 14.5145
71.2300 11.7144
71.2400 12.5424
71.2500 13.7111
71.2600 10.5996
71.2700 14.8370
71.2800 7.1068
71.2900 9.6314
71.3000 10.7506
71.3100 6.3787
71.3200 9.1236
71.3300 6.6430
71.3400 9.4587
71.3500 7.9960
71.3600 8.8287
71.3700 6.8807
71.3800 9.1467
71.3900 14.5206
71.4000 6.6504
71.4100 7.1219
71.4200 4.1914
71.4300 6.4849
71.4400 9.8465
71.4500 5.6432
71.4600 4.7043
71.4700 5.3249
71.4800 7.3296
71.4900 4.7524
71.5000 8.5771
71.5100 6.6003
71.5200 9.4258
71.5300 16.0777
71.5400 10.6286
71.5500 10.7626
71.5600 6.7039
71.5700 10.8384
71.5800 8.9490
71.5900 9.4903
71.6000 4.8878
71.6100 5.6585
71.6200 6.5544
71.6300 4.4968
71.6400 7.6790
71.6500 4.8921
71.6600 8.9065
71.6700 11.7124
71.6800 5.3816
71.6900 5.0697
71.7000 12.2875
71.7100 7.9048
71.7200 10.7916
71.7300 8.2218
71.7400 6.3635
71.7500 8.2319
71.7600 6.9342
71.7700 10.5638
71.7800 12.6673
71.7900 4.6613
71.8000 11.2373
71.8100 9.2086
71.8200 9.0383
71.8300 6.6860
71.8400 7.2433
71.8500 7.7997
71.8600 13.3149
71.8700 5.3788
71.8800 11.9010
71.8900 11.8767
71.9000 9.5599
71.9100 5.2602
71.9200 9.6485
71.9300 12.5358
71.9400 13.5927
71.9500 10.2245
71.9600 8.8410
71.9700 8.9598
71.9800 6.8511
71.9900 4.8085
72.0000 7.6075
72.0100 8.1854
72.0200 6.1935
72.0300 7.4689
72.0400 4.4350
72.0500 13.2037
72.0600 6.3205
72.0700 6.7214
72.0800 10.9076
72.0900 8.3531
72.1000 5.7440
72.1100 8.5872
72.1200 13.0927
72.1300 7.0928
72.1400 15.8278
72.1500 7.4092
72.1600 7.1959
72.1700 6.2119
72.1800 5.6525
72.1900 11.4165
72.2000 11.1348
72.2100 6.5070
72.2200 7.6827
72.2300 8.2082
72.2400 11.7735
72.2500 12.0249
72.2600 2.5418
72.2700 5.6993
72.2800 7.9010
72.2900 9.2990
72.3000 11.0418
72.3100 8.3581
72.3200 6.7625
72.3300 7.7413
72.3400 5.3699
72.3500 8.3359
72.3600 8.5015
72.3700 7.6559
72.3800 12.2074
72.3900 8.8201
72.4000 10.5581
72.4100 5.7944
72.4200 11.4622
72.4300 7.0547
72.4400 11.8260
72.4500 9.6324
72.4600 8.7056
72.4700 13.1802
72.4800 6.7698
72.4900 12.9589
72.5000 7.9848
72.5100 7.5355
72.5200 5.4673
72.5300 12.7942
72.5400 8.9321
72.5500 12.3929
72.5600 8.7580
72.5700 5.1266
72.5800 9.9623
72.5900 13.2133
72.6000 11.8781
72.6100 7.4622
72.6200 9.7312
72.6300 4.3582
72.6400 9.8342
72.6500 9.5566
72.6600 8.8855
72.6700 5.0493
72.6800 9.4939
72.6900 12.1474
72.7000 14.0243
72.7100 5.2489
72.7200 8.9329
72.7300 9.8637
72.7400 9.5622
72.7500 12.0859
72.7600 10.0839
72.7700 5.1145
72.7800 10.4224
72.7900 6.8530
72.8000 10.4781
72.8100 10.2914
72.8200 9.2563
72.8300 4.4259
72.8400 7.1595
72.8500 7.3655
72.8600 8.0022
72.8700 3.1589
72.8800 8.7664
72.8900 9.3246
72.9000 9.8006
72.9100 9.1838
72.9200 13.6411
72.9300 3.3503
72.9400 6.9355
72.9500 7.8375
72.9600 8.3436
72.9700 16.0037
72.9800 12.6504
72.9900 7.8124
73.0000 8.6676
73.0100 13.0160
73.0200 8.9581
73.0300 9.4280
73.0400 9.0802
73.0500 8.0953
73.0600 6.5814
73.0700 9.9539
73.0800 11.8586
73.0900 14.4905
73.1000 10.7240
73.1100 12.5218
73.1200 3.6262
73.1300 7.2276
73.1400 7.5335
73.1500 8.5096
73.1600 3.8461
73.1700 9.6790
73.1800 8.1473
73.1900 8.2349
73.2000 8.3536
73.2100 5.0903
73.2200 10.2136
73.2300 6.9921
73.2400 6.3791
73.2500 8.1626
73.2600 6.1857
73.2700 5.3456
73.2800 10.3022
73.2900 7.3097
73.3000 6.5712
73.3100 4.8154
73.3200 6.5247
73.3300 6.7274
73.3400 3.3750
73.3500 8.6456
73.3600 6.6775
73.3700 5.2002
73.3800 6.1339
73.3900 11.1621
73.4000 10.7700
73.4100 7.1806
73.4200 9.1116
73.4300 9.6294
73.4400 7.0449
73.4500 13.0686
73.4600 8.7457
73.4700 6.4166
73.4800 8.8982
73.4900 11.0729
73.5000 7.8040
73.5100 8.5086
73.5200 8.6061
73.5300 13.2459
73.5400 7.0534
73.5500 7.7277
73.5600 12.3692
73.5700 8.9294
73.5800 10.6783
73.5900 9.8483
73.6000 9.2241
73.6100 7.5679
73.6200 6.1747
73.6300 4.3898
73.6400 7.1918
73.6500 7.6904
73.6600 8.9216
73.6700 7.3983
73.6800 9.7081
73.6900 5.6687
73.7000 6.5544
73.7100 7.2451
73.7200 11.7127
73.7300 4.9006
73.7400 7.1248
73.7500 10.9865
73.7600 5.0758
73.7700 12.6680
73.7800 2.4784
73.7900 5.0558
73.8000 5.6907
73.8100 6.5986
73.8200 11.5035
73.8300 10.4087
73.8400 12.2056
73.8500 12.5307
73.8600 12.2957
73.8700 8.0758
73.8800 5.1876
73.8900 6.7195
73.9000 5.0488
73.9100 9.3242
73.9200 5.7708
73.9300 8.9500
73.9400 8.5363
73.9500 4.1943
73.9600 4.4819
73.9700 5.5205
73.9800 9.4926
73.9900 11.5901
74.0000 9.0214
74.0100 8.2799
74.0200 10.6412
74.0300 16.0525
74.0400 11.4338
74.0500 8.3011
74.0600 10.3055
74.0700 9.5350
74.0800 8.7408
74.0900 10.5019
74.1000 7.8264
74.1100 11.5218
74.1200 11.0293
74.1300 10.0607
74.1400 5.2883
74.1500 2.9267
74.1600 8.0645
74.1700 7.4206
74.1800 8.6668
74.1900 7.5990
74.2000 6.8188
74.2100 12.3414
74.2200 8.9605
74.2300 10.1169
74.2400 20.7427
74.2500 14.5372
74.2600 16.3639
74.2700 2.8127
74.2800 15.3693
74.2900 8.1798
74.3000 7.4591
74.3100 13.3920
74.3200 9.2741
74.3300 6.6124
74.3400 11.9001
74.3500 5.2312
74.3600 9.9325
74.3700 14.3620
74.3800 5.7691
74.3900 8.8374
74.4000 7.2932
74.4100 9.5523
74.4200 8.0324
74.4300 8.8552
74.4400 8.0749
74.4500 14.6183
74.4600 9.9373
74.4700 9.8718
74.4800 5.3726
74.4900 7.2711
74.5000 10.6473
74.5100 4.4698
74.5200 9.1103
74.5300 8.4476
74.5400 10.3588
74.5500 5.1526
74.5600 8.5202
74.5700 8.6020
74.5800 19.0915
74.5900 5.7301
74.6000 13.8054
74.6100 7.5824
74.6200 13.4731
74.6300 7.5507
74.6400 11.1546
74.6500 5.4088
74.6600 10.8876
74.6700 6.0383
74.6800 9.6757
74.6900 7.5822
74.7000 6.5057
74.7100 13.2855
74.7200 6.2351
74.7300 8.5931
74.7400 10.9694
74.7500 5.9087
74.7600 8.5917
74.7700 5.4260
74.7800 6.5280
74.7900 9.7016
74.8000 10.1702
74.8100 7.3236
74.8200 5.9464
74.8300 9.3500
74.8400 13.7921
74.8500 7.9317
74.8600 5.9088
74.8700 13.1382
74.8800 7.2252
74.8900 8.3402
74.9000 4.4697
74.9100 10.3632
74.9200 6.1683
74.9300 5.1851
74.9400 7.9478
74.9500 8.8775
74.9600 3.9565
74.9700 6.0708
74.9800 10.7061
74.9900 10.0115
75.0000 5.8735
75.0100 5.8132
75.0200 4.9992
75.0300 3.9770
75.0400 4.9949
75.0500 8.2699
75.0600 12.9973
75.0700 9.9244
75.0800 7.1180
75.0900 8.5023
75.1000 8.3041
75.1100 9.3847
75.1200 7.2228
75.1300 7.2320
75.1400 8.8435
75.1500 7.4177
75.1600 4.7769
75.1700 6.4759
75.1800 7.2785
75.1900 9.6317
75.2000 8.8554
75.2100 9.3620
75.2200 6.2410
75.2300 5.4478
75.2400 8.8607
75.2500 10.4646
75.2600 9.4041
75.2700 7.0261
75.2800 9.7967
75.2900 10.6496
75.3000 11.0999
75.3100 12.1218
75.3200 10.0285
75.3300 9.3760
75.3400 9.1761
75.3500 11.3236
75.3600 8.5670
75.3700 6.4504
75.3800 5.1055
75.3900 9.4903
75.4000 8.3607
75.4100 5.8999
75.4200 3.7528
75.4300 5.1359
75.4400 8.1964
75.4500 6.3293
75.4600 10.6093
75.4700 9.4792
75.4800 5.4641
75.4900 16.4010
75.5000 5.3193
75.5100 14.5313
75.5200 4.6898
75.5300 19.1033
75.5400 9.1613
75.5500 12.8948
75.5600 6.4812
75.5700 11.4717
75.5800 6.8017
75.5900 11.0493
75.6000 7.0678
75.6100 5.5789
75.6200 10.4801
75.6300 5.4062
75.6400 13.0970
75.6500 9.7535
75.6600 10.9797
75.6700 6.8714
75.6800 8.9650
75.6900 9.3537
75.7000 9.3249
75.7100 8.4612
75.7200 3.5199
75.7300 7.7169
75.7400 6.1561
75.7500 4.7234
75.7600 5.3355
75.7700 2.9849
75.7800 8.6040
75.7900 6.7065
75.8000 7.7690
75.8100 7.0788
75.8200 10.9426
75.8300 9.2728
75.8400 10.8791
75.8500 13.3235
75.8600 8.4180
75.8700 10.3105
75.8800 8.4553
75.8900 4.6716
75.9000 6.7976
75.9100 7.0504
75.9200 9.9784
75.9300 8.0829
75.9400 7.0029
75.9500 11.0347
75.9600 6.8675
75.9700 9.4380
75.9800 8.2890
75.9900 7.3591
76.0000 5.7469
76.0100 11.6640
76.0200 8.2054
76.0300 10.0223
76.0400 9.8109
76.0500 17.3098
76.0600 4.0566
76.0700 8.0262
76.0800 10.3274
76.0900 8.5154
76.1000 7.4263
76.1100 6.1429
76.1200 6.3590
76.1300 7.1145
76.1400 10.4606
76.1500 17.4237
76.1600 11.6513
76.1700 10.8846
76.1800 11.2016
76.1900 6.2215
76.2000 8.8786
76.2100 6.1907
76.2200 11.2488
76.2300 12.1172
76.2400 11.1895
76.2500 8.3032
76.2600 8.3189
76.2700 9.2819
76.2800 9.4407
76.2900 4.4629
76.3000 8.4790
76.3100 8.5262
76.3200 3.6808
76.3300 3.4802
76.3400 8.9411
76.3500 8.1844
76.3600 6.3609
76.3700 9.6306
76.3800 4.4552
76.3900 7.4091
76.4000 10.1908
76.4100 15.1128
76.4200 9.5750
76.4300 5.6165
76.4400 4.7600
76.4500 5.7873
76.4600 10.1649
76.4700 10.1897
76.4800 9.2296
76.4900 10.9126
76.5000 6.4087
76.5100 9.8013
76.5200 12.1548
76.5300 7.7125
76.5400 8.6692
76.5500 15.7683
76.5600 6.9502
76.5700 13.6221
76.5800 11.9912
76.5900 10.4632
76.6000 9.3545
76.6100 6.3408
76.6200 10.2681
76.6300 15.5557
76.6400 13.4775
76.6500 12.2156
76.6600 10.2105
76.6700 8.2411
76.6800 6.1951
76.6900 7.2518
76.7000 9.6457
76.7100 6.8580
76.7200 14.8253
76.7300 13.7479
76.7400 8.7231
76.7500 8.9667
76.7600 8.7244
76.7700 12.9108
76.7800 12.0581
76.7900 8.8016
76.8000 20.0465
76.8100 10.0974
76.8200 23.4458
76.8300 7.7982
76.8400 13.5915
76.8500 9.2779
76.8600 14.8748
76.8700 4.7415
76.8800 6.4161
76.8900 5.5295
76.9000 10.4633
76.9100 7.1257
76.9200 10.1932
76.9300 6.1330
76.9400 10.7054
76.9500 11.8015
76.9600 6.4683
76.9700 2.3193
76.9800 9.6269
76.9900 5.2931
77.0000 8.0323
77.0100 5.2245
77.0200 7.5882
77.0300 11.9170
77.0400 4.5616
77.0500 8.3513
77.0600 13.0707
77.0700 4.2949
77.0800 9.5272
77.0900 8.2355
77.1000 14.4315
77.1100 4.4107
77.1200 14.8212
77.1300 5.8353
77.1400 17.5777
77.1500 13.1376
77.1600 12.9153
77.1700 8.2420
77.1800 9.0033
77.1900 9.4250
77.2000 8.7809
77.2100 8.8007
77.2200 6.4375
77.2300 10.3124
77.2400 8.1504
77.2500 9.1745
77.2600 5.3293
77.2700 6.6954
77.2800 2.2225
77.2900 10.2145
77.3000 6.6405
77.3100 6.1790
77.3200 7.4170
77.3300 9.4495
77.3400 7.0670
77.3500 6.2174
77.3600 6.5902
77.3700 7.2566
77.3800 3.8630
77.3900 4.8043
77.4000 4.2069
77.4100 6.3801
77.4200 7.5203
77.4300 12.7848
77.4400 8.3000
77.4500 13.0330
77.4600 6.7895
77.4700 11.8128
77.4800 12.2081
77.4900 10.6852
77.5000 10.3087
77.5100 9.3248
77.5200 6.1976
77.5300 9.0968
77.5400 10.1044
77.5500 8.1340
77.5600 6.0863
77.5700 2.8871
77.5800 4.2918
77.5900 9.0555
77.6000 9.7632
77.6100 10.2484
77.6200 8.4547
77.6300 7.5160
77.6400 10.2701
77.6500 10.5937
77.6600 8.3494
77.6700 7.3908
77.6800 7.2278
77.6900 6.2817
77.7000 3.2820
77.7100 5.2623
77.7200 7.6339
77.7300 9.8399
77.7400 12.7050
77.7500 6.7084
77.7600 9.3057
77.7700 10.5744
77.7800 9.6598
77.7900 10.7032
77.8000 8.2491
77.8100 7.3817
77.8200 7.0558
77.8300 8.4047
77.8400 9.4422
77.8500 8.1221
77.8600 7.2874
77.8700 6.2530
77.8800 6.4383
77.8900 7.0275
77.9000 6.1180
77.9100 6.6456
77.9200 6.5388
77.9300 14.5331
77.9400 11.3454
77.9500 7.4124
77.9600 9.0452
77.9700 11.9430
77.9800 9.1655
77.9900 7.7691
78.0000 10.3788
78.0100 10.4032
78.0200 6.9712
78.0300 12.0986
78.0400 7.6685
78.0500 6.3789
78.0600 7.0532
78.0700 10.6974
78.0800 4.1031
78.0900 6.8524
78.1000 4.9151
78.1100 5.1384
78.1200 7.2072
78.1300 7.3254
78.1400 10.7813
78.1500 13.1610
78.1600 12.2854
78.1700 8.9876
78.1800 8.2996
78.1900 10.4495
78.2000 7.5775
78.2100 8.0711
78.2200 10.1373
78.2300 8.3747
78.2400 7.6066
78.2500 10.2215
78.2600 7.5063
78.2700 8.2560
78.2800 4.2119
78.2900 9.6799
78.3000 6.1395
78.3100 5.9302
78.3200 7.2826
78.3300 7.7331
78.3400 5.6335
78.3500 5.3276
78.3600 9.4176
78.3700 7.8867
78.3800 7.5945
78.3900 11.1274
78.4000 3.6587
78.4100 4.5370
78.4200 9.7767
78.4300 8.4483
78.4400 8.0261
78.4500 9.0493
78.4600 9.7929
78.4700 10.0411
78.4800 7.8056
78.4900 10.8844
78.5000 8.3645
78.5100 8.4624
78.5200 7.1663
78.5300 9.4173
78.5400 5.0824
78.5500 5.5215
78.5600 8.2130
78.5700 4.9076
78.5800 6.5854
78.5900 5.4232
78.6000 3.0531
78.6100 4.8902
78.6200 7.2943
78.6300 10.3446
78.6400 7.4852
78.6500 7.5993
78.6600 4.2518
78.6700 10.7625
78.6800 9.4962
78.6900 7.5648
78.7000 8.0253
78.7100 14.4367
78.7200 3.7610
78.7300 6.5527
78.7400 7.6642
78.7500 8.5716
78.7600 6.8347
78.7700 10.2977
78.7800 11.7685
78.7900 8.0245
78.8000 11.9809
78.8100 5.9211
78.8200 7.3347
78.8300 5.9197
78.8400 13.7010
78.8500 6.5351
78.8600 7.3953
78.8700 10.1877
78.8800 10.7483
78.8900 8.1655
78.9000 17.4425
78.9100 10.5368
78.9200 7.5494
78.9300 10.1430
78.9400 13.9970
78.9500 12.5979
78.9600 9.7326
78.9700 7.0925
78.9800 12.8809
78.9900 6.3202
79.0000 10.1183
79.0100 8.7235
79.0200 7.8327
79.0300 7.8021
79.0400 6.1724
79.0500 8.1340
79.0600 7.6694
79.0700 9.9080
79.0800 7.0144
79.0900 11.3616
79.1000 6.3192
79.1100 8.3191
79.1200 12.5341
79.1300 6.4599
79.1400 8.1776
79.1500 7.4799
79.1600 7.9842
79.1700 12.4316
79.1800 13.3488
79.1900 9.5356
79.2000 9.8693
79.2100 8.1749
79.2200 8.1896
79.2300 13.3285
79.2400 11.9083
79.2500 9.3823
79.2600 5.2546
79.2700 6.4502
79.2800 12.3623
79.2900 15.2967
79.3000 6.6141
79.3100 14.0762
79.3200 8.4606
79.3300 9.9464
79.3400 11.3585
79.3500 7.4761
79.3600 10.7004
79.3700 8.2036
79.3800 8.4631
79.3900 9.1211
79.4000 7.2363
79.4100 5.3670
79.4200 5.7524
79.4300 5.8453
79.4400 7.7442
79.4500 1.7889
79.4600 3.1589
79.4700 8.4737
79.4800 7.6915
79.4900 9.0021
79.5000 9.0914
79.5100 4.9186
79.5200 6.2936
79.5300 9.5789
79.5400 8.4572
79.5500 9.2634
79.5600 4.1054
79.5700 7.3396
79.5800 8.5376
79.5900 7.5209
79.6000 9.6389
79.6100 7.2695
79.6200 11.9330
79.6300 5.9503
79.6400 14.2773
79.6500 11.6767
79.6600 10.0825
79.6700 5.5048
79.6800 6.4967
79.6900 8.4322
79.7000 7.3842
79.7100 9.7147
79.7200 6.0697
79.7300 6.4760
79.7400 15.2533
79.7500 9.0056
79.7600 13.0689
79.7700 5.6982
79.7800 7.3182
79.7900 9.2773
79.8000 12.4061
79.8100 6.4856
79.8200 7.7565
79.8300 5.9372
79.8400 12.4549
79.8500 4.2133
79.8600 9.2488
79.8700 8.3968
79.8800 16.4026
79.8900 8.8864
79.9000 16.2045
79.9100 8.1414
79.9200 8.2482
79.9300 7.5234
79.9400 6.3456
79.9500 9.8422
79.9600 4.9174
79.9700 5.2176
79.9800 4.7330
79.9900 7.6277
80.0000 9.3885
80.0100 7.0068
80.0200 5.2997
80.0300 10.6525
80.0400 8.2979
80.0500 5.3425
80.0600 7.2710
80.0700 6.1636
80.0800 6.4713
80.0900 7.2300
80.1000 8.6855
80.1100 6.4982
80.1200 11.2379
80.1300 5.1671
80.1400 11.2416
80.1500 7.3699
80.1600 10.8047
80.1700 4.1901
80.1800 10.7944
80.1900 5.3115
80.2000 12.3720
80.2100 4.4633
80.2200 6.9948
80.2300 7.1163
80.2400 5.5156
80.2500 8.7018
80.2600 12.6112
80.2700 6.4027
80.2800 7.1249
80.2900 3.7241
80.3000 8.9305
80.3100 14.4856
80.3200 4.5701
80.3300 8.8754
80.3400 8.1344
80.3500 8.8449
80.3600 5.0920
80.3700 6.7993
80.3800 9.4129
80.3900 7.6153
80.4000 6.6428
80.4100 9.6404
80.4200 8.0346
80.4300 4.8924
80.4400 3.6348
80.4500 3.6564
80.4600 6.8293
80.4700 5.6612
80.4800 7.5015
80.4900 6.4325
80.5000 10.5049
80.5100 7.3549
80.5200 10.3661
80.5300 7.0248
80.5400 8.2301
80.5500 11.2465
80.5600 12.9795
80.5700 6.9719
80.5800 9.7732
80.5900 8.2789
80.6000 6.6480
80.6100 4.4146
80.6200 8.7983
80.6300 4.6826
80.6400 9.6697
80.6500 8.6364
80.6600 3.9592
80.6700 7.8288
80.6800 14.5376
80.6900 7.4094
80.7000 7.3217
80.7100 8.4113
80.7200 8.2453
80.7300 8.3125
80.7400 8.4508
80.7500 6.6816
80.7600 7.6033
80.7700 6.5587
80.7800 5.0576
80.7900 8.0196
80.8000 13.0954
80.8100 9.1152
80.8200 9.0485
80.8300 3.3125
80.8400 11.7067
80.8500 9.7386
80.8600 5.5560
80.8700 14.3092
80.8800 6.3832
80.8900 4.7255
80.9000 10.5344
80.9100 5.6108
80.9200 5.3932
80.9300 10.7146
80.9400 7.2780
80.9500 3.3528
80.9600 10.1356
80.9700 5.3285
80.9800 6.3811
80.9900 6.5117
81.0000 6.1803
81.0100 8.9882
81.0200 8.6778
81.0300 6.3856
81.0400 6.5611
81.0500 5.5460
81.0600 7.5782
81.0700 9.0275
81.0800 11.5518
81.0900 4.0009
81.1000 6.9876
81.1100 11.2503
81.1200 11.0630
81.1300 8.7180
81.1400 9.1421
81.1500 5.6052
81.1600 5.2763
81.1700 8.1154
81.1800 8.7048
81.1900 8.9761
81.2000 13.2951
81.2100 7.2901
81.2200 13.5564
81.2300 7.4228
81.2400 6.5241
81.2500 7.0863
81.2600 5.2148
81.2700 6.8644
81.2800 5.3059
81.2900 8.3694
81.3000 7.4796
81.3100 10.7951
81.3200 7.4778
81.3300 4.0928
81.3400 5.8527
81.3500 6.7840
81.3600 3.5731
81.3700 4.9662
81.3800 8.9119
81.3900 10.7973
81.4000 9.9690
81.4100 7.0397
81.4200 7.6701
81.4300 4.5475
81.4400 7.2155
81.4500 5.2357
81.4600 6.9441
81.4700 5.3451
81.4800 10.4329
81.4900 5.7223
81.5000 10.9306
81.5100 6.7154
81.5200 9.3178
81.5300 5.7328
81.5400 1.8087
81.5500 6.6709
81.5600 7.8184
81.5700 9.5298
81.5800 11.1284
81.5900 4.0736
81.6000 4.0603
81.6100 4.8695
81.6200 6.9373
81.6300 7.3866
81.6400 10.7572
81.6500 6.5376
81.6600 8.8107
81.6700 5.4159
81.6800 3.8409
81.6900 4.4400
81.7000 6.0478
81.7100 5.6003
81.7200 10.7702
81.7300 8.5576
81.7400 6.0014
81.7500 5.4343
81.7600 7.3609
81.7700 6.0624
81.7800 3.9118
81.7900 9.0385
81.8000 9.0327
81.8100 6.2097
81.8200 4.5665
81.8300 8.3872
81.8400 8.8412
81.8500 6.8939
81.8600 6.5659
81.8700 3.1441
81.8800 5.1249
81.8900 8.0123
81.9000 3.2794
81.9100 5.5743
81.9200 6.6484
81.9300 6.4231
81.9400 7.7528
81.9500 10.6213
81.9600 9.5070
81.9700 9.0318
81.9800 3.4013
81.9900 6.9834
82.0000 10.2479
82.0100 8.0368
82.0200 7.6514
82.0300 11.3507
82.0400 10.7345
82.0500 9.7092
82.0600 4.8304
82.0700 11.1461
82.0800 4.1924
82.0900 9.1712
82.1000 6.2454
82.1100 7.1406
82.1200 5.0402
82.1300 4.9969
82.1400 10.8596
82.1500 6.0992
82.1600 10.0366
82.1700 8.1547
82.1800 6.8662
82.1900 3.8385
82.2000 8.2125
82.2100 10.0790
82.2200 7.6870
82.2300 6.6623
82.2400 9.0066
82.2500 6.9196
82.2600 9.0482
82.2700 8.7319
82.2800 5.8694
82.2900 7.4538
82.3000 4.1119
82.3100 8.7071
82.3200 8.5819
82.3300 11.5493
82.3400 10.1653
82.3500 9.1459
82.3600 9.9787
82.3700 5.2525
82.3800 9.9503
82.3900 7.6389
82.4000 11.8773
82.4100 9.9626
82.4200 5.7496
82.4300 11.3612
82.4400 9.8134
82.4500 11.1225
82.4600 7.9531
82.4700 9.2878
82.4800 7.4119
82.4900 9.6132
82.5000 4.6710
82.5100 5.9529
82.5200 10.8319
82.5300 12.5644
82.5400 10.3295
82.5500 9.8191
82.5600 7.5467
82.5700 7.4480
82.5800 6.1206
82.5900 6.8053
82.6000 9.1534
82.6100 3.6813
82.6200 4.8119
82.6300 6.0886
82.6400 6.3759
82.6500 7.4776
82.6600 6.7112
82.6700 5.4324
82.6800 10.5731
82.6900 8.9463
82.7000 6.7444
82.7100 9.2912
82.7200 13.1784
82.7300 7.8593
82.7400 15.1835
82.7500 4.1634
82.7600 5.4814
82.7700 8.7463
82.7800 10.6268
82.7900 9.7934
82.8000 8.0687
82.8100 11.5945
82.8200 20.8264
82.8300 16.6741
82.8400 17.0401
82.8500 14.8799
82.8600 15.1366
82.8700 20.6334
82.8800 18.7599
82.8900 14.7170
82.9000 17.5210
82.9100 20.3047
82.9200 17.8658
82.9300 24.0803
82.9400 27.8979
82.9500 25.9919
82.9600 38.2183
82.9700 37.2106
82.9800 46.2548
82.9900 47.6334
83.0000 56.1704
83.0100 66.4838
83.0200 57.2075
83.0300 60.9265
83.0400 69.1394
83.0500 65.4810
83.0600 60.6470
83.0700 70.9806
83.0800 55.3661
83.0900 61.5467
83.1000 68.5804
83.1100 64.9392
83.1200 45.1888
83.1300 51.2317
83.1400 49.6300
83.1500 45.1672
83.1600 40.4139
83.1700 34.4963
83.1800 38.6364
83.1900 26.6130
83.2000 27.5352
83.2100 24.3636
83.2200 22.8098
83.2300 18.8746
83.2400 23.2297
83.2500 18.3648
83.2600 14.4364
83.2700 6.5764
83.2800 11.0232
83.2900 18.7393
83.3000 16.1979
83.3100 11.6019
83.3200 14.2258
83.3300 11.9077
83.3400 9.0520
83.3500 10.5641
83.3600 9.3647
83.3700 10.3008
83.3800 5.3695
83.3900 1.4996
83.4000 8.6402
83.4100 4.1736
83.4200 7.7938
83.4300 7.4362
83.4400 9.2261
83.4500 14.3848
83.4600 4.8541
83.4700 13.0226
83.4800 6.5501
83.4900 11.6299
83.5000 4.9930
83.5100 13.7272
83.5200 9.7828
83.5300 9.4571
83.5400 5.7845
83.5500 5.6435
83.5600 3.5734
83.5700 10.5942
83.5800 6.6816
83.5900 9.2478
83.6000 8.6636
83.6100 7.6468
83.6200 11.3503
83.6300 10.5555
83.6400 8.3173
83.6500 12.8850
83.6600 9.7535
83.6700 11.2492
83.6800 15.1437
83.6900 5.7884
83.7000 5.9311
83.7100 4.6356
83.7200 6.9380
83.7300 9.1873
83.7400 9.9020
83.7500 9.5966
83.7600 12.4953
83.7700 9.1521
83.7800 11.3999
83.7900 5.2586
83.8000 10.1766
83.8100 6.6931
83.8200 6.8559
83.8300 9.4983
83.8400 5.4862
83.8500 9.3371
83.8600 7.1464
83.8700 7.3405
83.8800 5.0826
83.8900 9.8354
83.9000 4.6465
83.9100 12.4492
83.9200 11.3218
83.9300 12.5159
83.9400 12.2162
83.9500 8.4725
83.9600 8.1487
83.9700 10.2583
83.9800 8.0298
83.9900 6.4592
84.0000 10.5124
84.0100 6.9374
84.0200 7.9269
84.0300 9.4196
84.0400 8.7754
84.0500 10.3983
84.0600 7.9742
84.0700 9.0072
84.0800 10.9444
84.0900 8.9218
84.1000 9.4536
84.1100 11.0727
84.1200 7.3729
84.1300 10.0678
84.1400 5.6469
84.1500 5.3224
84.1600 6.6627
84.1700 8.1118
84.1800 4.5831
84.1900 5.8331
84.2000 3.8795
84.2100 12.0387
84.2200 7.6573
84.2300 9.3511
84.2400 7.9935
84.2500 9.6158
84.2600 6.3729
84.2700 7.0196
84.2800 11.6062
84.2900 13.8605
84.3000 12.5267
84.3100 7.7769
84.3200 8.9604
84.3300 9.0946
84.3400 3.1243
84.3500 2.5144
84.3600 6.4103
84.3700 9.1722
84.3800 6.7504
84.3900 8.7564
84.4000 5.8949
84.4100 8.9633
84.4200 7.0830
84.4300 11.9182
84.4400 4.3095
84.4500 0.2508
84.4600 5.0148
84.4700 7.6338
84.4800 7.9888
84.4900 7.0581
84.5000 15.2042
84.5100 3.0893
84.5200 7.7419
84.5300 5.5955
84.5400 7.1372
84.5500 5.1856
84.5600 4.2439
84.5700 8.2736
84.5800 10.9477
84.5900 8.7628
84.6000 6.8666
84.6100 5.0166
84.6200 5.5612
84.6300 5.9141
84.6400 14.4628
84.6500 3.5448
84.6600 5.2685
84.6700 7.9940
84.6800 4.3980
84.6900 5.1477
84.7000 8.4580
84.7100 7.4381
84.7200 8.8467
84.7300 5.4647
84.7400 8.0406
84.7500 8.2419
84.7600 9.4769
84.7700 9.1549
84.7800 4.1788
84.7900 9.7914
84.8000 13.0543
84.8100 8.0371
84.8200 7.9861
84.8300 6.6803
84.8400 9.0122
84.8500 9.5998
84.8600 6.5622
84.8700 13.2926
84.8800 7.4553
84.8900 10.2538
84.9000 10.9497
84.9100 6.6875
84.9200 8.9360
84.9300 12.6029
84.9400 11.6794
84.9500 12.4015
84.9600 9.6739
84.9700 16.6223
84.9800 4.7455
84.9900 7.5495
85.0000 7.4995
85.0100 6.5009
85.0200 11.0779
85.0300 12.5721
85.0400 10.2424
85.0500 11.7605
85.0600 1.7952
85.0700 8.9232
85.0800 9.6568
85.0900 8.0211
85.1000 8.8843
85.1100 14.4587
85.1200 14.0745
85.1300 12.9861
85.1400 4.1744
85.1500 2.2465
85.1600 4.6685
85.1700 4.1529
85.1800 5.3966
85.1900 8.1081
85.2000 7.5434
85.2100 5.0225
85.2200 6.7698
85.2300 3.6530
85.2400 5.3143
85.2500 8.1539
85.2600 6.0390
85.2700 4.9247
85.2800 10.7517
85.2900 6.0468
85.3000 8.2447
85.3100 12.0530
85.3200 9.7041
85.3300 5.8101
85.3400 10.2650
85.3500 7.5791
85.3600 9.6088
85.3700 11.7870
85.3800 5.8428
85.3900 6.4177
85.4000 5.5650
85.4100 9.5793
85.4200 7.1747
85.4300 6.9162
85.4400 4.7940
85.4500 11.0072
85.4600 7.5474
85.4700 11.2693
85.4800 11.5013
85.4900 7.4539
85.5000 8.2917
85.5100 6.7184
85.5200 10.2299
85.5300 12.8028
85.5400 9.9810
85.5500 10.1196
85.5600 8.3270
85.5700 3.7746
85.5800 4.7616
85.5900 8.3360
85.6000 4.2195
85.6100 11.7318
85.6200 5.2272
85.6300 6.6482
85.6400 8.0719
85.6500 6.1925
85.6600 8.1452
85.6700 6.8791
85.6800 11.3274
85.6900 13.3857
85.7000 10.5382
85.7100 7.7242
85.7200 10.0994
85.7300 6.7420
85.7400 7.5053
85.7500 3.3563
85.7600 9.6611
85.7700 7.1010
85.7800 9.8879
85.7900 9.7879
85.8000 12.0720
85.8100 3.7790
85.8200 8.2566
85.8300 12.1708
85.8400 8.7021
85.8500 15.3287
85.8600 15.8834
85.8700 6.0630
85.8800 8.2609
85.8900 7.7569
85.9000 10.6800
85.9100 6.6215
85.9200 10.2864
85.9300 3.0252
85.9400 9.8188
85.9500 8.2822
85.9600 5.7535
85.9700 7.4035
85.9800 5.2788
85.9900 3.3062
86.0000 10.3431
86.0100 8.0702
86.0200 9.2432
86.0300 4.3946
86.0400 10.7523
86.0500 9.1491
86.0600 8.5765
86.0700 4.6653
86.0800 7.9566
86.0900 8.1154
86.1000 7.4386
86.1100 7.7038
86.1200 9.1192
86.1300 4.4359
86.1400 11.9981
86.1500 5.8605
86.1600 10.0132
86.1700 10.6445
86.1800 8.4226
86.1900 7.3681
86.2000 10.3890
86.2100 9.1707
86.2200 8.1595
86.2300 8.2629
86.2400 7.7262
86.2500 7.0039
86.2600 3.3403
86.2700 9.3341
86.2800 5.8634
86.2900 6.8075
86.3000 8.1730
86.3100 11.5727
86.3200 13.1273
86.3300 11.8684
86.3400 10.8902
86.3500 7.3030
86.3600 4.3476
86.3700 8.3224
86.3800 10.9543
86.3900 7.0636
86.4000 6.1850
86.4100 8.7812
86.4200 12.8092
86.4300 9.8226
86.4400 10.4186
86.4500 5.7399
86.4600 9.2512
86.4700 7.2954
86.4800 7.1440
86.4900 8.3164
86.5000 6.9333
86.5100 6.9656
86.5200 7.1877
86.5300 4.6788
86.5400 8.7365
86.5500 6.6165
86.5600 10.8089
86.5700 5.5411
86.5800 11.6449
86.5900 10.8619
86.6000 9.2654
86.6100 5.1869
86.6200 12.1800
86.6300 6.6996
86.6400 6.3977
86.6500 6.3545
86.6600 4.8948
86.6700 13.3119
86.6800 8.8331
86.6900 5.4761
86.7000 12.0933
86.7100 5.2586
86.7200 11.6185
86.7300 9.7325
86.7400 8.0916
86.7500 7.2635
86.7600 8.5532
86.7700 7.3098
86.7800 10.1163
86.7900 4.5138
86.8000 5.7589
86.8100 6.2308
86.8200 10.6772
86.8300 10.6970
86.8400 6.0087
86.8500 18.6527
86.8600 13.4658
86.8700 21.4084
86.8800 10.8348
86.8900 14.4510
86.9000 8.5690
86.9100 12.3817
86.9200 4.8733
86.9300 6.3338
86.9400 7.4452
86.9500 5.5301
86.9600 10.2911
86.9700 9.1279
86.9800 9.3377
86.9900 5.9703
87.0000 11.1648
87.0100 11.8936
87.0200 16.8779
87.0300 12.5831
87.0400 10.0873
87.0500 11.9625
87.0600 6.1703
87.0700 8.3882
87.0800 6.9464
87.0900 6.2947
87.1000 3.4288
87.1100 7.6770
87.1200 3.6998
87.1300 8.7897
87.1400 7.7108
87.1500 10.7326
87.1600 4.6173
87.1700 8.5065
87.1800 7.9603
87.1900 6.2462
87.2000 12.7319
87.2100 13.1299
87.2200 9.6543
87.2300 8.5741
87.2400 9.9372
87.2500 9.0218
87.2600 11.6579
87.2700 6.0629
87.2800 5.2694
87.2900 4.4136
87.3000 3.8607
87.3100 7.4107
87.3200 12.5831
87.3300 9.5322
87.3400 12.2279
87.3500 11.7824
87.3600 11.6575
87.3700 12.2693
87.3800 10.9279
87.3900 7.2851
87.4000 9.5215
87.4100 9.3763
87.4200 6.6495
87.4300 10.8951
87.4400 6.9411
87.4500 7.5618
87.4600 6.8614
87.4700 7.0692
87.4800 12.9558
87.4900 7.9828
87.5000 15.0088
87.5100 10.1063
87.5200 12.7980
87.5300 5.5678
87.5400 13.9188
87.5500 9.8495
87.5600 14.0843
87.5700 7.5860
87.5800 6.5201
87.5900 10.8237
87.6000 8.4053
87.6100 4.4526
87.6200 9.8890
87.6300 7.4709
87.6400 9.8643
87.6500 4.7416
87.6600 6.6399
87.6700 5.6514
87.6800 4.6057
87.6900 6.4700
87.7000 11.7041
87.7100 7.7164
87.7200 9.3230
87.7300 10.2312
87.7400 7.9620
87.7500 12.0848
87.7600 10.7357
87.7700 8.0801
87.7800 12.0991
87.7900 6.5305
87.8000 5.0226
87.8100 8.2902
87.8200 7.4587
87.8300 8.8905
87.8400 14.1257
87.8500 3.9985
87.8600 7.0643
87.8700 7.1407
87.8800 8.3831
87.8900 8.4300
87.9000 8.0563
87.9100 8.7776
87.9200 9.0769
87.9300 7.6996
87.9400 9.0242
87.9500 12.5087
87.9600 9.8374
87.9700 8.4213
87.9800 14.3814
87.9900 6.1825
88.0000 12.1871
88.0100 9.1216
88.0200 6.6961
88.0300 9.9548
88.0400 10.3934
88.0500 7.9513
88.0600 5.7692
88.0700 6.4687
88.0800 6.7512
88.0900 8.3570
88.1000 11.6293
88.1100 4.9820
88.1200 8.1362
88.1300 4.6447
88.1400 8.5908
88.1500 9.0399
88.1600 6.5256
88.1700 11.0923
88.1800 4.2017
88.1900 8.9583
88.2000 7.6981
88.2100 8.2626
88.2200 14.5242
88.2300 9.4435
88.2400 12.1471
88.2500 4.7102
88.2600 17.6237
88.2700 13.4654
88.2800 10.5372
88.2900 6.4890
88.3000 10.4783
88.3100 6.7844
88.3200 11.9520
88.3300 8.2900
88.3400 6.3537
88.3500 5.4476
88.3600 13.2929
88.3700 3.8194
88.3800 7.2346
88.3900 7.8549
88.4000 11.0722
88.4100 6.4620
88.4200 15.6274
88.4300 8.9405
88.4400 7.7196
88.4500 8.8678
88.4600 11.3058
88.4700 11.5015
88.4800 9.1183
88.4900 12.8275
88.5000 4.2233
88.5100 5.3611
88.5200 7.5729
88.5300 7.6063
88.5400 4.5325
88.5500 7.5910
88.5600 5.9713
88.5700 17.4960
88.5800 6.1459
88.5900 13.7653
88.6000 5.6948
88.6100 15.6097
88.6200 9.3969
88.6300 12.1798
88.6400 8.1888
88.6500 9.4219
88.6600 5.8514
88.6700 16.6044
88.6800 5.5874
88.6900 11.4056
88.7000 9.0756
88.7100 10.6658
88.7200 6.9952
88.7300 8.0010
88.7400 5.7571
88.7500 9.0355
88.7600 8.6150
88.7700 5.9039
88.7800 9.1486
88.7900 8.0585
88.8000 5.2171
88.8100 7.4603
88.8200 7.2054
88.8300 8.1451
88.8400 14.0156
88.8500 9.6180
88.8600 7.6472
88.8700 9.0248
88.8800 8.8196
88.8900 6.7595
88.9000 9.3270
88.9100 7.1483
88.9200 2.7159
88.9300 4.7272
88.9400 10.7501
88.9500 4.7656
88.9600 16.3751
88.9700 10.3653
88.9800 10.8933
88.9900 7.3629
89.0000 3.1605
89.0100 7.1433
89.0200 3.7927
89.0300 6.2776
89.0400 7.3154
89.0500 6.6222
89.0600 11.5510
89.0700 14.3793
89.0800 3.5147
89.0900 17.7710
89.1000 10.5283
89.1100 8.1710
89.1200 8.2017
89.1300 7.7215
89.1400 6.6705
89.1500 10.4148
89.1600 5.2376
89.1700 8.7190
89.1800 6.1832
89.1900 6.0138
89.2000 11.2409
89.2100 15.1947
89.2200 7.6441
89.2300 8.0546
89.2400 9.7510
89.2500 8.4596
89.2600 5.1136
89.2700 9.0480
89.2800 7.1440
89.2900 9.8839
89.3000 12.2642
89.3100 8.4938
89.3200 6.9743
89.3300 12.7917
89.3400 9.7952
89.3500 10.0916
89.3600 8.0859
89.3700 12.1455
89.3800 11.7007
89.3900 12.5661
89.4000 11.0468
89.4100 7.6656
89.4200 5.4043
89.4300 6.3748
89.4400 8.5737
89.4500 4.4264
89.4600 4.0030
89.4700 3.2302
89.4800 12.8476
89.4900 9.0680
89.5000 5.7357
89.5100 10.0476
89.5200 4.6333
89.5300 1.2887
89.5400 9.6416
89.5500 7.7075
89.5600 9.3370
89.5700 6.4271
89.5800 10.6044
89.5900 4.0725
89.6000 7.2941
89.6100 7.9401
89.6200 9.0642
89.6300 6.7107
89.6400 9.2614
89.6500 6.7249
89.6600 5.4590
89.6700 8.3255
89.6800 5.8724
89.6900 7.4616
89.7000 10.3122
89.7100 6.8668
89.7200 5.7182
89.7300 7.4891
89.7400 8.4384
89.7500 9.2631
89.7600 10.7028
89.7700 9.2961
89.7800 9.7068
89.7900 8.8906
89.8000 11.6707
89.8100 13.2908
89.8200 5.3831
89.8300 5.2696
89.8400 13.1163
89.8500 4.2990
89.8600 7.2362
89.8700 4.6798
89.8800 5.0954
89.8900 6.0108
89.9000 9.1025
89.9100 7.0739
89.9200 13.7635
89.9300 9.5654
89.9400 8.5291
89.9500 5.6428
89.9600 5.7046
89.9700 3.7520
89.9800 5.3817
89.9900 8.9946
90.0000 8.4682
90.0100 6.6856
90.0200 9.5844
90.0300 6.9972
90.0400 10.0430
90.0500 4.2032
90.0600 10.1523
90.0700 3.4118
90.0800 7.2615
90.0900 7.1063
90.1000 11.9117
90.1100 7.5899
90.1200 8.9528
90.1300 7.2886
90.1400 12.4943
90.1500 16.5550
90.1600 9.6803
90.1700 8.7169
90.1800 6.9810
90.1900 6.8272
90.2000 6.3070
90.2100 5.9044
90.2200 12.7803
90.2300 7.8260
90.2400 3.8757
90.2500 5.1154
90.2600 7.3158
90.2700 7.3700
90.2800 5.6831
90.2900 7.6066
90.3000 8.9522
90.3100 9.9888
90.3200 5.6813
90.3300 4.7231
90.3400 7.9669
90.3500 5.0244
90.3600 3.4642
90.3700 6.0830
90.3800 5.2755
90.3900 7.3167
90.4000 4.7432
90.4100 13.6902
90.4200 11.8967
90.4300 6.5857
90.4400 7.0199
90.4500 12.2806
90.4600 3.3902
90.4700 8.9409
90.4800 14.3014
90.4900 7.4935
90.5000 9.4774
90.5100 7.0626
90.5200 15.1975
90.5300 11.2474
90.5400 16.1620
90.5500 7.0044
90.5600 11.0994
90.5700 8.0504
90.5800 9.6580
90.5900 5.1441
90.6000 8.4653
90.6100 6.4690
90.6200 3.5042
90.6300 11.8894
90.6400 5.6539
90.6500 6.2161
90.6600 6.3469
90.6700 3.7297
90.6800 6.2394
90.6900 8.1072
90.7000 14.3027
90.7100 5.3388
90.7200 15.6548
90.7300 10.8086
90.7400 6.0415
90.7500 8.1600
90.7600 9.9530
90.7700 12.3351
90.7800 10.1659
90.7900 18.6566
90.8000 10.8070
90.8100 15.4938
90.8200 8.2293
90.8300 16.4687
90.8400 16.9558
90.8500 11.5010
90.8600 19.5830
90.8700 8.6671
90.8800 8.8645
90.8900 4.4782
90.9000 11.2458
90.9100 12.3562
90.9200 9.1700
90.9300 7.9993
90.9400 5.9150
90.9500 8.2158
90.9600 7.3283
90.9700 10.9484
90.9800 5.0148
90.9900 8.0588
91.0000 10.9678
91.0100 5.1894
91.0200 6.8835
91.0300 7.6251
91.0400 8.8898
91.0500 7.3937
91.0600 4.8749
91.0700 12.7147
91.0800 10.7388
91.0900 11.6656
91.1000 3.3434
91.1100 9.9519
91.1200 5.1850
91.1300 6.2395
91.1400 12.7430
91.1500 17.2790
91.1600 6.6662
91.1700 7.4196
91.1800 5.9054
91.1900 8.4607
91.2000 5.9480
91.2100 8.2223
91.2200 4.4710
91.2300 11.0322
91.2400 7.6173
91.2500 13.0413
91.2600 10.3092
91.2700 11.1806
91.2800 10.6131
91.2900 8.9448
91.3000 9.0145
91.3100 12.4033
91.3200 6.4445
91.3300 8.2400
91.3400 9.7194
91.3500 7.1949
91.3600 7.3104
91.3700 7.8210
91.3800 13.0036
91.3900 9.3127
91.4000 10.5705
91.4100 14.4591
91.4200 12.7337
91.4300 11.2353
91.4400 13.7606
91.4500 4.6913
91.4600 6.8868
91.4700 4.8605
91.4800 5.5383
91.4900 4.9158
91.5000 7.8093
91.5100 10.8441
91.5200 12.0172
91.5300 6.1057
91.5400 9.4787
91.5500 15.0473
91.5600 5.8809
91.5700 12.5388
91.5800 12.5430
91.5900 14.5693
91.6000 10.2334
91.6100 5.6418
91.6200 3.2642
91.6300 2.8507
91.6400 1.1454
91.6500 6.4883
91.6600 10.9878
91.6700 7.6431
91.6800 6.7982
91.6900 11.0053
91.7000 10.6746
91.7100 13.2180
91.7200 8.1128
91.7300 10.1103
91.7400 8.8679
91.7500 5.2921
91.7600 5.1558
91.7700 6.2504
91.7800 5.2496
91.7900 6.4688
91.8000 10.0757
91.8100 7.7418
91.8200 9.4437
91.8300 6.0287
91.8400 8.7739
91.8500 5.4176
91.8600 9.3399
91.8700 10.5520
91.8800 11.9201
91.8900 5.4362
91.9000 6.7978
91.9100 8.0585
91.9200 5.2945
91.9300 3.9097
91.9400 13.0062
91.9500 12.0065
91.9600 5.6837
91.9700 14.2250
91.9800 7.6999
91.9900 6.6786
92.0000 7.5986
92.0100 9.8094
92.0200 8.9599
92.0300 6.8277
92.0400 7.5734
92.0500 6.6790
92.0600 8.3406
92.0700 7.7494
92.0800 8.9556
92.0900 11.0692
92.1000 11.6674
92.1100 8.0974
92.1200 6.6393
92.1300 9.0776
92.1400 7.8949
92.1500 11.9175
92.1600 6.0712
92.1700 10.3555
92.1800 7.7379
92.1900 17.4969
92.2000 11.7585
92.2100 17.4217
92.2200 6.0038
92.2300 10.6108
92.2400 8.8100
92.2500 5.3948
92.2600 3.9607
92.2700 4.1587
92.2800 4.2603
92.2900 9.8089
92.3000 10.3680
92.3100 5.5772
92.3200 9.4090
92.3300 10.2086
92.3400 5.9996
92.3500 4.1984
92.3600 5.5020
92.3700 5.3602
92.3800 5.7618
92.3900 10.5765
92.4000 14.0878
92.4100 6.2066
92.4200 9.0273
92.4300 8.7857
92.4400 4.8885
92.4500 4.1427
92.4600 9.1432
92.4700 6.6202
92.4800 10.6574
92.4900 3.6539
92.5000 4.5288
92.5100 13.9210
92.5200 6.1785
92.5300 6.5809
92.5400 8.2479
92.5500 8.1000
92.5600 5.4859
92.5700 9.6737
92.5800 6.5571
92.5900 8.6712
92.6000 8.3902
92.6100 8.3029
92.6200 5.4410
92.6300 5.2553
92.6400 2.2884
92.6500 7.5747
92.6600 7.5914
92.6700 12.4470
92.6800 5.5916
92.6900 3.1516
92.7000 9.8277
92.7100 11.5778
92.7200 9.2459
92.7300 3.0523
92.7400 5.8349
92.7500 5.5447
92.7600 7.0525
92.7700 8.8855
92.7800 9.9688
92.7900 11.1120
92.8000 11.1081
92.8100 8.4882
92.8200 5.2822
92.8300 7.1733
92.8400 7.2386
92.8500 6.9001
92.8600 6.8011
92.8700 8.8149
92.8800 6.1772
92.8900 8.0911
92.9000 4.8943
92.9100 9.2704
92.9200 12.4428
92.9300 10.4677
92.9400 6.1829
92.9500 3.3127
92.9600 4.4051
92.9700 7.7613
92.9800 4.8037
92.9900 7.3237
93.0000 4.2270
93.0100 5.4538
93.0200 4.7919
93.0300 7.2462
93.0400 8.5351
93.0500 12.9693
93.0600 14.2504
93.0700 10.8572
93.0800 5.5258
93.0900 8.1983
93.1000 2.9814
93.1100 5.5677
93.1200 4.3472
93.1300 5.1026
93.1400 3.1798
93.1500 9.2841
93.1600 8.4751
93.1700 11.0475
93.1800 7.4214
93.1900 5.4969
93.2000 11.1961
93.2100 10.0943
93.2200 10.9558
93.2300 6.0204
93.2400 6.4318
93.2500 9.6634
93.2600 8.0197
93.2700 9.3939
93.2800 6.5170
93.2900 9.9823
93.3000 4.1008
93.3100 9.8566
93.3200 10.5580
93.3300 16.4100
93.3400 3.5896
93.3500 11.9486
93.3600 7.5635
93.3700 8.3637
93.3800 7.0199
93.3900 8.2022
93.4000 7.0580
93.4100 6.7846
93.4200 6.8589
93.4300 11.4050
93.4400 12.5934
93.4500 10.3906
93.4600 6.5118
93.4700 7.0088
93.4800 9.1002
93.4900 13.0723
93.5000 5.8943
93.5100 9.3239
93.5200 5.2959
93.5300 9.9818
93.5400 6.5290
93.5500 10.8328
93.5600 5.3712
93.5700 5.9086
93.5800 7.2390
93.5900 11.9955
93.6000 3.8558
93.6100 3.0980
93.6200 10.6587
93.6300 6.9953
93.6400 7.7935
93.6500 4.2892
93.6600 7.1800
93.6700 2.6373
93.6800 8.7683
93.6900 7.3088
93.7000 8.6586
93.7100 7.2751
93.7200 9.7386
93.7300 9.0438
93.7400 12.9960
93.7500 13.4613
93.7600 11.5584
93.7700 4.4489
93.7800 9.0187
93.7900 9.9159
93.8000 10.5027
93.8100 6.1232
93.8200 9.2580
93.8300 5.5392
93.8400 8.6433
93.8500 8.9260
93.8600 13.3486
93.8700 6.9440
93.8800 14.5639
93.8900 7.6920
93.9000 11.3269
93.9100 9.8962
93.9200 8.3887
93.9300 9.5384
93.9400 8.0605
93.9500 8.1922
93.9600 7.2568
93.9700 6.1483
93.9800 9.1432
93.9900 5.3985
94.0000 9.4025
94.0100 6.2736
94.0200 8.1166
94.0300 9.5048
94.0400 11.4598
94.0500 12.7945
94.0600 6.2175
94.0700 10.8333
94.0800 11.4722
94.0900 7.4945
94.1000 7.8891
94.1100 11.6559
94.1200 13.2133
94.1300 14.2438
94.1400 9.2693
94.1500 9.1485
94.1600 10.2128
94.1700 6.3317
94.1800 2.1646
94.1900 9.2486
94.2000 4.1790
94.2100 10.4617
94.2200 11.1782
94.2300 10.8534
94.2400 5.4022
94.2500 8.7038
94.2600 9.4831
94.2700 7.5651
94.2800 3.3788
94.2900 8.7702
94.3000 6.4421
94.3100 8.6216
94.3200 13.4759
94.3300 5.4371
94.3400 8.4744
94.3500 7.5356
94.3600 8.7437
94.3700 8.9442
94.3800 10.7911
94.3900 8.9650
94.4000 6.7813
94.4100 2.7459
94.4200 12.7522
94.4300 4.1558
94.4400 5.0159
94.4500 9.0311
94.4600 6.0112
94.4700 5.5591
94.4800 8.6940
94.4900 8.0729
94.5000 7.0848
94.5100 10.2716
94.5200 9.5803
94.5300 11.7769
94.5400 7.5669
94.5500 12.1420
94.5600 6.7599
94.5700 6.4681
94.5800 6.0277
94.5900 9.7439
94.6000 8.2455
94.6100 4.2012
94.6200 4.6299
94.6300 8.0084
94.6400 7.0899
94.6500 9.3207
94.6600 8.2118
94.6700 6.6754
94.6800 7.5151
94.6900 9.1843
94.7000 11.9997
94.7100 10.6772
94.7200 6.2991
94.7300 5.5932
94.7400 5.7582
94.7500 7.6476
94.7600 4.7494
94.7700 5.3029
94.7800 6.5000
94.7900 3.8619
94.8000 11.4233
94.8100 4.0004
94.8200 9.0596
94.8300 7.6002
94.8400 5.9722
94.8500 6.0525
94.8600 6.1954
94.8700 13.7108
94.8800 4.6427
94.8900 7.0057
94.9000 4.1194
94.9100 9.0821
94.9200 6.6273
94.9300 7.1403
94.9400 8.2053
94.9500 8.0025
94.9600 9.5347
94.9700 6.2455
94.9800 5.7641
94.9900 7.1416
95.0000 6.0192
95.0100 6.3259
95.0200 2.3047
95.0300 6.7708
95.0400 7.2750
95.0500 6.4402
95.0600 6.7686
95.0700 7.0289
95.0800 6.4712
95.0900 8.3377
95.1000 7.7811
95.1100 7.4039
95.1200 5.5584
95.1300 5.3483
95.1400 3.9137
95.1500 9.4367
95.1600 6.2176
95.1700 7.3512
95.1800 8.9793
95.1900 3.8644
95.2000 6.1513
95.2100 7.3211
95.2200 12.5629
95.2300 3.3724
95.2400 14.0425
95.2500 2.6513
95.2600 9.6120
95.2700 6.2813
95.2800 12.1532
95.2900 6.5843
95.3000 10.4005
95.3100 7.4735
95.3200 7.7292
95.3300 4.1614
95.3400 3.1165
95.3500 5.2310
95.3600 6.1061
95.3700 10.2110
95.3800 10.8183
95.3900 6.8934
95.4000 5.5843
95.4100 2.3746
95.4200 5.1235
95.4300 5.7087
95.4400 2.9205
95.4500 6.1097
95.4600 5.0739
95.4700 9.4799
95.4800 9.7355
95.4900 13.9561
95.5000 11.2391
95.5100 16.6748
95.5200 17.4226
95.5300 12.1031
95.5400 12.0531
95.5500 6.0403
95.5600 13.2707
95.5700 8.1164
95.5800 9.3887
95.5900 7.4443
95.6000 8.8146
95.6100 8.0616
95.6200 4.7640
95.6300 5.0884
95.6400 7.4951
95.6500 7.8559
95.6600 9.4820
95.6700 13.2208
95.6800 10.3604
95.6900 8.5503
95.7000 13.1855
95.7100 9.8894
95.7200 6.1671
95.7300 4.9142
95.7400 5.2242
95.7500 10.4321
95.7600 5.3675
95.7700 8.1544
95.7800 8.2787
95.7900 9.9265
95.8000 9.2766
95.8100 10.0107
95.8200 8.1272
95.8300 5.8449
95.8400 9.0174
95.8500 3.7237
95.8600 8.7510
95.8700 4.6090
95.8800 10.2296
95.8900 8.1766
95.9000 5.6332
95.9100 0.5946
95.9200 8.4148
95.9300 8.6362
95.9400 6.9207
95.9500 5.8429
95.9600 10.1196
95.9700 5.5140
95.9800 8.0103
95.9900 8.1688
96.0000 6.6483
96.0100 9.7370
96.0200 8.1289
96.0300 9.0930
96.0400 4.6666
96.0500 4.2758
96.0600 8.3719
96.0700 5.4678
96.0800 6.8790
96.0900 9.6944
96.1000 3.2882
96.1100 5.1268
96.1200 3.4093
96.1300 4.8085
96.1400 8.1831
96.1500 10.9022
96.1600 9.4513
96.1700 10.7225
96.1800 5.5257
96.1900 9.7749
96.2000 8.6126
96.2100 6.0443
96.2200 6.9913
96.2300 4.0019
96.2400 4.5281
96.2500 5.4238
96.2600 4.2553
96.2700 7.3063
96.2800 12.0259
96.2900 6.7462
96.3000 15.0063
96.3100 10.4355
96.3200 10.7337
96.3300 6.6577
96.3400 4.9882
96.3500 8.5362
96.3600 9.1420
96.3700 10.6910
96.3800 5.6720
96.3900 8.8339
96.4000 6.1264
96.4100 4.9467
96.4200 7.4864
96.4300 8.1241
96.4400 6.8028
96.4500 6.7041
96.4600 5.8397
96.4700 8.9073
96.4800 7.2160
96.4900 2.1927
96.5000 3.5026
96.5100 8.4597
96.5200 5.1623
96.5300 8.5613
96.5400 10.2363
96.5500 5.6999
96.5600 5.5904
96.5700 4.7140
96.5800 10.7662
96.5900 7.5723
96.6000 6.2550
96.6100 7.1771
96.6200 5.2507
96.6300 9.8111
96.6400 9.4915
96.6500 7.7993
96.6600 6.6414
96.6700 4.5274
96.6800 9.2699
96.6900 9.5505
96.7000 6.7870
96.7100 3.1873
96.7200 8.6805
96.7300 4.4892
96.7400 9.3407
96.7500 5.5518
96.7600 9.2511
96.7700 2.5497
96.7800 9.1385
96.7900 5.9006
96.8000 8.0648
96.8100 10.9159
96.8200 6.7592
96.8300 10.2320
96.8400 10.0197
96.8500 5.3177
96.8600 11.8006
96.8700 6.0311
96.8800 4.6908
96.8900 6.7560
96.9000 13.2977
96.9100 6.4309
96.9200 6.9964
96.9300 6.5480
96.9400 8.9644
96.9500 9.0985
96.9600 7.2871
96.9700 11.0962
96.9800 8.8285
96.9900 10.2132
97.0000 8.5561
97.0100 4.8827
97.0200 12.5689
97.0300 11.5047
97.0400 14.3147
97.0500 8.5907
97.0600 7.5218
97.0700 10.4186
97.0800 14.4547
97.0900 9.0044
97.1000 10.0906
97.1100 8.6314
97.1200 7.2641
97.1300 9.2500
97.1400 7.2988
97.1500 6.8676
97.1600 7.6958
97.1700 11.1085
97.1800 4.6095
97.1900 9.3450
97.2000 7.8948
97.2100 7.1706
97.2200 5.7743
97.2300 3.2105
97.2400 3.8175
97.2500 3.7071
97.2600 9.1817
97.2700 6.4849
97.2800 8.3917
97.2900 8.2602
97.3000 4.8155
97.3100 7.0887
97.3200 6.4713
97.3300 8.3299
97.3400 10.0870
97.3500 8.6836
97.3600 15.2137
97.3700 14.1160
97.3800 16.0834
97.3900 10.9864
97.4000 8.2223
97.4100 11.4038
97.4200 11.6591
97.4300 9.9959
97.4400 9.7796
97.4500 13.9629
97.4600 2.2173
97.4700 5.9612
97.4800 6.1753
97.4900 8.8384
97.5000 10.7971
97.5100 6.3635
97.5200 4.9516
97.5300 5.7231
97.5400 7.0358
97.5500 9.0984
97.5600 5.7443
97.5700 4.4952
97.5800 5.2685
97.5900 8.4998
97.6000 6.9687
97.6100 4.0927
97.6200 9.1132
97.6300 10.8828
97.6400 5.4206
97.6500 9.9027
97.6600 7.8142
97.6700 5.7311
97.6800 12.8543
97.6900 6.2778
97.7000 5.8990
97.7100 9.0028
97.7200 6.4081
97.7300 8.1434
97.7400 5.5271
97.7500 2.8763
97.7600 3.6656
97.7700 5.9001
97.7800 1.2004
97.7900 4.4160
97.8000 4.1028
97.8100 4.1196
97.8200 5.5385
97.8300 9.6255
97.8400 3.7371
97.8500 4.7256
97.8600 5.3192
97.8700 8.7272
97.8800 5.9669
97.8900 7.2956
97.9000 7.1655
97.9100 4.3377
97.9200 5.8182
97.9300 8.8580
97.9400 4.4280
97.9500 5.6795
97.9600 6.3338
97.9700 6.0149
97.9800 8.1350
97.9900 5.6958
98.0000 11.2413
98.0100 9.6515
98.0200 11.5011
98.0300 5.5310
98.0400 4.9141
98.0500 9.5679
98.0600 5.9158
98.0700 11.0203
98.0800 4.3641
98.0900 5.9994
98.1000 7.9870
98.1100 11.4943
98.1200 9.1795
98.1300 9.0868
98.1400 10.2831
98.1500 9.0102
98.1600 5.7869
98.1700 9.3527
98.1800 7.7149
98.1900 7.3281
98.2000 8.1645
98.2100 3.3011
98.2200 4.1437
98.2300 4.9583
98.2400 7.6304
98.2500 13.0928
98.2600 4.6608
98.2700 5.2099
98.2800 12.3178
98.2900 3.4182
98.3000 6.9816
98.3100 5.0964
98.3200 7.0016
98.3300 3.8704
98.3400 8.0896
98.3500 5.8020
98.3600 6.7031
98.3700 6.9939
98.3800 17.8551
98.3900 10.7414
98.4000 10.0126
98.4100 5.9253
98.4200 5.3006
98.4300 5.3494
98.4400 5.9890
98.4500 4.0828
98.4600 3.2781
98.4700 6.2898
98.4800 4.0235
98.4900 11.6871
98.5000 5.4395
98.5100 7.8943
98.5200 7.0512
98.5300 8.2994
98.5400 5.2189
98.5500 7.0496
98.5600 13.4201
98.5700 11.5166
98.5800 5.8409
98.5900 8.4794
98.6000 4.2221
98.6100 8.4644
98.6200 6.9233
98.6300 5.2560
98.6400 3.3269
98.6500 4.6161
98.6600 3.7014
98.6700 10.5450
98.6800 8.5575
98.6900 11.7113
98.7000 5.8224
98.7100 8.5966
98.7200 11.5924
98.7300 10.5155
98.7400 5.2759
98.7500 8.4366
98.7600 8.0904
98.7700 5.4001
98.7800 7.8086
98.7900 5.2760
98.8000 6.8161
98.8100 7.3846
98.8200 8.2985
98.8300 9.7256
98.8400 11.3768
98.8500 11.7737
98.8600 5.1180
98.8700 6.8294
98.8800 13.3816
98.8900 10.3758
98.9000 10.5257
98.9100 7.7208
98.9200 5.3057
98.9300 2.4434
98.9400 7.5184
98.9500 9.4426
98.9600 7.0127
98.9700 3.5189
98.9800 5.6300
98.9900 6.9596
99.0000 7.0372
99.0100 7.3353
99.0200 5.9333
99.0300 8.2314
99.0400 6.8088
99.0500 8.8730
99.0600 7.3454
99.0700 1.0688
99.0800 11.2200
99.0900 13.5052
99.1000 8.7258
99.1100 13.2749
99.1200 3.6270
99.1300 10.2583
99.1400 11.5542
99.1500 9.1605
99.1600 5.8339
99.1700 8.5012
99.1800 10.4662
99.1900 6.3832
99.2000 5.1313
99.2100 15.0959
99.2200 6.7015
99.2300 8.3276
99.2400 8.2919
99.2500 5.8286
99.2600 13.1038
99.2700 10.4922
99.2800 3.4171
99.2900 8.8548
99.3000 3.0382
99.3100 9.2010
99.3200 7.7018
99.3300 12.3676
99.3400 11.8426
99.3500 9.7580
99.3600 14.3085
99.3700 11.3835
99.3800 11.2404
99.3900 4.8965
99.4000 9.1189
99.4100 12.1597
99.4200 13.6369
99.4300 14.9785
99.4400 13.7983
99.4500 17.2236
99.4600 27.5702
99.4700 27.3796
99.4800 19.3494
99.4900 22.5705
99.5000 29.2487
99.5100 37.6590
99.5200 27.0104
99.5300 30.7355
99.5400 32.8957
99.5500 42.7251
99.5600 46.1460
99.5700 54.2893
99.5800 36.3267
99.5900 42.1190
99.6000 39.9762
99.6100 35.0834
99.6200 38.3996
99.6300 38.9042
99.6400 35.0667
99.6500 34.4292
99.6600 32.1010
99.6700 39.0339
99.6800 33.1566
99.6900 19.9556
99.7000 33.0304
99.7100 28.6089
99.7200 20.3744
99.7300 24.3560
99.7400 11.6973
99.7500 16.8451
99.7600 17.7194
99.7700 15.3212
99.7800 17.7086
99.7900 17.7199
99.8000 12.7961
99.8100 10.4027
99.8200 5.8463
99.8300 12.1677
99.8400 11.0160
99.8500 9.6726
99.8600 8.2345
99.8700 6.9559
99.8800 7.4187
99.8900 9.2604
99.9000 15.4861
99.9100 7.1885
99.9200 6.9231
99.9300 6.1678
99.9400 7.9558
99.9500 6.0774
99.9600 9.2024
99.9700 13.8742
99.9800 7.5153
99.9900 7.9695
100.0000 5.2796
100.0100 8.7688
100.0200 10.4498
100.0300 10.2003
100.0400 8.5735
100.0500 7.3222
100.0600 6.9173
100.0700 5.1141
100.0800 8.1696
100.0900 7.3813
100.1000 4.5782
100.1100 11.2145
100.1200 9.2250
100.1300 9.2398
100.1400 9.3324
100.1500 13.8345
100.1600 7.3426
100.1700 12.0029
100.1800 15.4422
100.1900 8.8841
100.2000 12.8830
100.2100 6.0710
100.2200 11.4027
100.2300 10.9802
100.2400 9.5172
100.2500 8.9138
100.2600 7.5335
100.2700 8.7136
100.2800 8.7710
100.2900 8.3972
100.3000 8.8825
100.3100 7.2778
100.3200 10.5937
100.3300 7.3992
100.3400 11.4609
100.3500 11.4615
100.3600 12.0923
100.3700 9.0172
100.3800 8.0800
100.3900 8.4644
100.4000 12.2251
100.4100 14.5376
100.4200 13.8960
100.4300 7.8441
100.4400 4.4778
100.4500 7.9795
100.4600 9.9186
100.4700 6.0027
100.4800 10.3435
100.4900 11.1221
100.5000 7.1007
100.5100 8.4764
100.5200 14.9228
100.5300 8.2546
100.5400 9.3640
100.5500 5.6683
100.5600 11.4525
100.5700 6.6098
100.5800 10.8129
100.5900 13.0363
100.6000 8.2519
100.6100 7.4904
100.6200 4.7574
100.6300 6.8557
100.6400 10.3966
100.6500 3.3332
100.6600 7.1310
100.6700 5.9888
100.6800 4.6895
100.6900 4.2082
100.7000 9.7465
100.7100 6.7633
100.7200 9.2418
100.7300 4.6101
100.7400 11.0383
100.7500 4.2781
100.7600 10.9630
100.7700 4.1822
100.7800 15.5720
100.7900 4.3643
100.8000 6.9049
100.8100 12.2177
100.8200 6.4831
100.8300 7.7237
100.8400 6.3117
100.8500 9.8251
100.8600 6.3639
100.8700 7.5860
100.8800 8.0446
100.8900 4.8469
100.9000 6.9550
100.9100 6.2705
100.9200 6.0697
100.9300 9.1536
100.9400 12.3625
100.9500 8.4887
100.9600 5.4126
100.9700 11.2592
100.9800 12.5555
100.9900 10.6906
101.0000 5.7569
101.0100 6.4670
101.0200 6.7277
101.0300 5.8287
101.0400 11.6060
101.0500 9.3780
101.0600 6.6926
101.0700 6.2032
101.0800 9.5461
101.0900 11.1643
101.1000 9.1697
101.1100 16.3922
101.1200 8.5411
101.1300 7.6911
101.1400 5.6167
101.1500 8.5890
101.1600 8.2241
101.1700 9.3331
101.1800 8.4959
101.1900 5.3773
101.2000 8.5876
101.2100 6.9737
101.2200 7.4800
101.2300 9.5882
101.2400 8.7720
101.2500 7.6456
101.2600 4.3828
101.2700 7.1734
101.2800 7.3527
101.2900 2.7220
101.3000 3.7498
101.3100 7.4667
101.3200 8.1591
101.3300 2.6943
101.3400 4.3050
101.3500 6.9433
101.3600 7.3428
101.3700 5.9191
101.3800 4.2322
101.3900 8.3205
101.4000 5.6140
101.4100 8.2611
101.4200 12.3261
101.4300 11.1516
101.4400 7.5993
101.4500 4.4997
101.4600 7.1389
101.4700 6.0923
101.4800 8.2297
101.4900 5.1951
101.5000 10.3484
101.5100 7.8895
101.5200 2.8660
101.5300 8.0546
101.5400 6.8249
101.5500 6.1390
101.5600 5.8913
101.5700 4.8400
101.5800 9.2227
101.5900 6.4716
101.6000 9.6354
101.6100 10.1373
101.6200 7.2663
101.6300 6.4690
101.6400 9.1601
101.6500 11.7764
101.6600 12.4703
101.6700 7.4429
101.6800 4.5135
101.6900 6.2168
101.7000 7.2596
101.7100 7.0550
101.7200 4.0369
101.7300 6.3419
101.7400 4.2993
101.7500 8.2274
101.7600 11.5638
101.7700 4.8830
101.7800 11.4256
101.7900 4.7716
101.8000 8.5104
101.8100 7.2279
101.8200 9.3863
101.8300 4.1271
101.8400 3.9304
101.8500 7.6986
101.8600 6.9828
101.8700 5.9239
101.8800 6.4916
101.8900 6.0721
101.9000 7.9688
101.9100 6.4533
101.9200 12.4573
101.9300 15.0193
101.9400 4.8594
101.9500 15.4515
101.9600 8.8479
101.9700 6.1283
101.9800 4.5072
101.9900 5.6723
102.0000 6.3831
102.0100 10.3020
102.0200 5.3094
102.0300 8.7212
102.0400 4.8841
102.0500 4.3457
102.0600 4.4092
102.0700 5.6168
102.0800 8.4767
102.0900 2.6512
102.1000 8.4071
102.1100 6.1126
102.1200 10.3510
102.1300 4.6950
102.1400 7.1809
102.1500 3.9877
102.1600 6.4844
102.1700 6.6223
102.1800 4.1433
102.1900 6.2431
102.2000 9.5819
102.2100 7.1334
102.2200 3.4128
102.2300 8.6853
102.2400 7.2935
102.2500 9.7508
102.2600 7.7182
102.2700 12.2000
102.2800 7.5961
102.2900 12.2319
102.3000 10.8837
102.3100 10.0622
102.3200 5.9655
102.3300 9.2600
102.3400 4.4887
102.3500 8.4537
102.3600 10.9352
102.3700 12.6545
102.3800 6.8392
102.3900 6.9943
102.4000 7.1619
102.4100 6.6923
102.4200 7.4712
102.4300 6.4201
102.4400 6.6739
102.4500 6.2760
102.4600 3.6447
102.4700 13.6642
102.4800 4.8155
102.4900 6.4103
102.5000 8.6556
102.5100 12.6110
102.5200 11.1281
102.5300 7.0630
102.5400 10.2569
102.5500 6.2158
102.5600 14.6537
102.5700 10.9445
102.5800 11.0830
102.5900 8.6115
102.6000 7.2047
102.6100 9.1016
102.6200 10.4645
102.6300 7.9263
102.6400 7.6719
102.6500 14.8273
102.6600 6.7331
102.6700 7.5175
102.6800 6.3434
102.6900 8.9746
102.7000 6.9914
102.7100 12.0190
102.7200 7.2602
102.7300 5.4836
102.7400 9.7832
102.7500 8.6226
102.7600 6.8342
102.7700 7.1874
102.7800 15.3061
102.7900 10.5010
102.8000 10.4242
102.8100 8.0288
102.8200 10.2231
102.8300 7.1224
102.8400 6.0361
102.8500 7.5933
102.8600 6.4280
102.8700 4.3216
102.8800 7.4974
102.8900 5.2726
102.9000 4.1208
102.9100 6.2969
102.9200 7.7716
102.9300 6.2981
102.9400 7.5184
102.9500 9.3280
102.9600 7.0209
102.9700 9.3847
102.9800 9.7751
102.9900 12.5553
103.0000 10.1649
103.0100 9.0064
103.0200 9.2200
103.0300 6.5878
103.0400 9.4906
103.0500 8.4792
103.0600 7.7858
103.0700 8.7769
103.0800 5.6151
103.0900 9.9180
103.1000 7.8377
103.1100 7.9328
103.1200 8.3292
103.1300 8.3503
103.1400 7.7434
103.1500 12.6177
103.1600 9.1266
103.1700 12.0614
103.1800 5.8377
103.1900 8.3520
103.2000 7.1734
103.2100 8.6240
103.2200 6.1429
103.2300 7.4520
103.2400 6.7803
103.2500 6.5695
103.2600 8.6393
103.2700 6.8114
103.2800 8.0501
103.2900 10.3931
103.3000 10.4144
103.3100 9.7728
103.3200 11.3588
103.3300 5.4957
103.3400 2.9226
103.3500 6.0242
103.3600 6.1502
103.3700 9.8434
103.3800 9.6615
103.3900 4.4204
103.4000 8.4504
103.4100 5.4883
103.4200 10.0997
103.4300 6.2832
103.4400 7.6666
103.4500 7.1771
103.4600 3.7666
103.4700 10.0197
103.4800 7.4791
103.4900 13.6925
103.5000 11.8325
103.5100 10.5431
103.5200 6.3490
103.5300 3.8081
103.5400 3.9528
103.5500 9.8304
103.5600 11.2807
103.5700 6.8817
103.5800 7.9926
103.5900 11.7951
103.6000 5.5873
103.6100 3.2519
103.6200 4.3138
103.6300 8.9225
103.6400 7.2931
103.6500 7.7482
103.6600 5.8320
103.6700 5.4721
103.6800 7.1749
103.6900 5.0830
103.7000 6.0602
103.7100 5.1402
103.7200 10.4440
103.7300 9.1879
103.7400 8.4506
103.7500 8.4746
103.7600 7.6333
103.7700 6.7284
103.7800 7.3999
103.7900 11.6202
103.8000 8.2182
103.8100 10.0520
103.8200 6.3238
103.8300 5.0971
103.8400 3.8771
103.8500 11.2717
103.8600 11.9763
103.8700 7.0865
103.8800 8.3307
103.8900 5.5486
103.9000 7.3926
103.9100 7.1313
103.9200 6.3849
103.9300 8.7748
103.9400 5.9952
103.9500 5.6204
103.9600 5.3584
103.9700 12.1060
103.9800 3.8548
103.9900 5.0039
104.0000 5.2247
104.0100 10.1876
104.0200 10.4110
104.0300 11.1815
104.0400 6.4719
104.0500 8.9004
104.0600 10.6158
104.0700 6.8835
104.0800 7.8587
104.0900 5.1762
104.1000 5.7993
104.1100 13.0181
104.1200 4.7106
104.1300 4.8968
104.1400 6.2257
104.1500 9.8111
104.1600 10.3197
104.1700 13.4664
104.1800 10.0875
104.1900 11.5403
104.2000 11.5508
104.2100 8.5187
104.2200 7.2285
104.2300 7.1700
104.2400 12.2801
104.2500 11.3126
104.2600 10.2640
104.2700 7.2383
104.2800 7.2232
104.2900 7.7747
104.3000 8.6915
104.3100 4.6281
104.3200 9.0298
104.3300 8.0352
104.3400 10.1017
104.3500 6.7451
104.3600 5.1950
104.3700 4.3573
104.3800 6.0739
104.3900 7.1444
104.4000 4.1609
104.4100 4.8640
104.4200 5.8979
104.4300 3.2162
104.4400 10.6268
104.4500 6.9158
104.4600 6.1712
104.4700 10.2883
104.4800 9.9331
104.4900 9.6764
104.5000 8.2898
104.5100 8.3308
104.5200 6.1850
104.5300 5.5961
104.5400 8.0534
104.5500 8.8812
104.5600 9.9977
104.5700 6.3419
104.5800 7.1821
104.5900 4.8222
104.6000 4.9806
104.6100 9.4808
104.6200 12.0817
104.6300 5.8031
104.6400 8.0824
104.6500 6.9037
104.6600 6.7279
104.6700 6.2631
104.6800 4.7296
104.6900 8.8685
104.7000 8.6502
104.7100 8.3863
104.7200 8.4703
104.7300 7.8468
104.7400 3.2435
104.7500 10.7007
104.7600 3.0687
104.7700 6.0226
104.7800 6.1817
104.7900 3.1086
104.8000 4.1267
104.8100 5.7118
104.8200 7.7407
104.8300 9.1891
104.8400 3.6264
104.8500 12.1231
104.8600 9.9371
104.8700 10.4313
104.8800 4.5058
104.8900 3.4096
104.9000 8.4251
104.9100 8.2687
104.9200 7.7955
104.9300 9.5687
104.9400 6.9847
104.9500 9.5402
104.9600 5.2164
104.9700 6.2035
104.9800 8.3060
104.9900 5.1708
105.0000 5.1044
105.0100 4.8201
105.0200 1.7073
105.0300 4.8524
105.0400 8.9602
105.0500 9.7141
105.0600 5.9337
105.0700 4.6250
105.0800 4.6312
105.0900 13.1498
105.1000 7.6154
105.1100 8.5136
105.1200 8.7464
105.1300 8.7733
105.1400 6.0563
105.1500 5.2756
105.1600 5.6256
105.1700 10.7796
105.1800 5.2754
105.1900 10.9030
105.2000 12.4109
105.2100 9.5773
105.2200 9.5930
105.2300 3.7994
105.2400 6.8337
105.2500 7.1243
105.2600 11.0944
105.2700 8.8312
105.2800 7.5357
105.2900 5.3120
105.3000 4.3931
105.3100 5.1963
105.3200 6.9271
105.3300 7.8061
105.3400 9.3249
105.3500 5.3834
105.3600 4.8437
105.3700 7.7706
105.3800 9.5080
105.3900 5.3838
105.4000 5.4296
105.4100 10.5248
105.4200 5.1884
105.4300 13.0489
105.4400 8.3670
105.4500 8.9763
105.4600 4.2788
105.4700 5.8868
105.4800 6.5472
105.4900 5.5281
105.5000 10.7440
105.5100 7.6929
105.5200 9.7940
105.5300 10.6861
105.5400 6.3939
105.5500 8.2733
105.5600 14.3317
105.5700 18.1923
105.5800 18.0560
105.5900 13.3150
105.6000 12.4629
105.6100 6.0502
105.6200 7.3279
105.6300 6.5506
105.6400 8.5578
105.6500 9.0402
105.6600 6.3260
105.6700 4.8982
105.6800 5.1439
105.6900 3.3721
105.7000 5.4297
105.7100 6.4346
105.7200 7.7320
105.7300 6.3685
105.7400 6.5978
105.7500 10.7926
105.7600 4.0899
105.7700 7.9794
105.7800 8.4482
105.7900 10.6679
105.8000 12.5019
105.8100 9.9499
105.8200 11.4144
105.8300 10.3884
105.8400 7.8334
105.8500 4.1256
105.8600 3.8349
105.8700 6.6884
105.8800 9.1369
105.8900 8.3227
105.9000 9.9144
105.9100 2.0059
105.9200 5.3044
105.9300 6.2816
105.9400 7.1760
105.9500 4.3233
105.9600 6.6941
105.9700 4.7152
105.9800 8.9799
105.9900 5.5564
106.0000 3.9598
106.0100 3.8789
106.0200 6.3063
106.0300 7.6550
106.0400 12.8763
106.0500 6.6070
106.0600 7.8514
106.0700 7.6324
106.0800 13.7473
106.0900 4.7428
106.1000 10.6456
106.1100 13.2702
106.1200 9.1092
106.1300 2.6847
106.1400 8.8656
106.1500 7.3066
106.1600 12.8871
106.1700 11.9305
106.1800 12.9506
106.1900 8.3252
106.2000 12.5303
106.2100 6.5529
106.2200 6.3064
106.2300 7.3574
106.2400 5.9908
106.2500 6.9403
106.2600 16.1037
106.2700 7.2619
106.2800 8.2184
106.2900 10.9355
106.3000 6.6331
106.3100 5.1314
106.3200 6.7909
106.3300 8.2882
106.3400 8.3420
106.3500 6.6423
106.3600 6.8037
106.3700 7.3402
106.3800 9.1598
106.3900 3.8969
106.4000 9.2640
106.4100 5.0131
106.4200 6.7905
106.4300 8.0859
106.4400 6.9324
106.4500 4.4112
106.4600 4.6920
106.4700 15.8521
106.4800 6.2354
106.4900 10.7303
106.5000 5.9892
106.5100 9.9499
106.5200 9.9929
106.5300 5.8344
106.5400 10.3547
106.5500 9.2753
106.5600 12.5994
106.5700 5.6589
106.5800 15.3913
106.5900 10.6684
106.6000 24.9630
106.6100 6.5334
106.6200 16.8580
106.6300 6.8628
106.6400 18.2520
106.6500 9.7361
106.6600 10.1053
106.6700 6.4544
106.6800 7.2782
106.6900 8.6123
106.7000 4.3169
106.7100 6.6457
106.7200 7.9992
106.7300 9.1146
106.7400 5.8535
106.7500 5.6928
106.7600 6.8548
106.7700 6.4508
106.7800 9.0784
106.7900 12.5473
106.8000 8.9692
106.8100 7.6112
106.8200 11.7513
106.8300 8.9161
106.8400 12.3003
106.8500 7.4173
106.8600 7.3540
106.8700 8.6063
106.8800 8.3478
106.8900 5.0853
106.9000 10.3354
106.9100 6.0380
106.9200 14.4319
106.9300 6.0027
106.9400 8.8647
106.9500 5.4797
106.9600 9.6848
106.9700 9.6205
106.9800 8.8523
106.9900 6.4598
107.0000 10.3136
107.0100 7.6559
107.0200 8.9419
107.0300 7.0491
107.0400 9.0109
107.0500 11.2141
107.0600 10.0342
107.0700 7.0046
107.0800 11.8928
107.0900 8.7142
107.1000 6.6335
107.1100 5.2689
107.1200 9.6050
107.1300 12.5858
107.1400 8.6380
107.1500 14.1702
107.1600 5.2260
107.1700 5.7862
107.1800 9.4987
107.1900 7.2351
107.2000 10.1697
107.2100 11.4551
107.2200 6.4035
107.2300 9.9336
107.2400 4.9685
107.2500 7.7759
107.2600 7.8081
107.2700 7.6178
107.2800 6.7589
107.2900 10.5510
107.3000 3.8175
107.3100 13.5035
107.3200 11.3692
107.3300 16.5308
107.3400 13.1986
107.3500 11.3392
107.3600 9.6037
107.3700 9.1363
107.3800 6.3734
107.3900 7.9561
107.4000 6.0032
107.4100 8.4696
107.4200 8.9844
107.4300 13.3300
107.4400 3.5398
107.4500 6.6716
107.4600 5.8270
107.4700 4.0346
107.4800 4.3145
107.4900 5.6157
107.5000 3.5232
107.5100 9.1735
107.5200 8.1486
107.5300 6.8615
107.5400 7.8390
107.5500 6.9509
107.5600 8.9470
107.5700 13.6675
107.5800 6.5159
107.5900 6.8624
107.6000 7.0887
107.6100 9.9472
107.6200 13.8078
107.6300 12.0001
107.6400 13.6319
107.6500 3.9783
107.6600 17.5588
107.6700 5.3227
107.6800 6.5595
107.6900 10.0344
107.7000 12.2373
107.7100 7.2080
107.7200 6.7903
107.7300 4.8894
107.7400 4.2237
107.7500 13.6334
107.7600 15.6334
107.7700 10.8814
107.7800 5.5293
107.7900 6.9011
107.8000 7.8809
107.8100 9.0056
107.8200 9.0700
107.8300 11.1069
107.8400 16.9392
107.8500 4.9130
107.8600 3.1151
107.8700 5.1613
107.8800 5.6307
107.8900 5.0414
107.9000 11.1621
107.9100 3.8441
107.9200 5.8383
107.9300 6.4393
107.9400 3.3183
107.9500 8.2246
107.9600 2.6977
107.9700 10.8371
107.9800 7.2169
107.9900 4.3166
108.0000 4.8241
108.0100 8.4390
108.0200 6.4208
108.0300 10.9705
108.0400 7.3664
108.0500 15.6196
108.0600 9.4237
108.0700 5.3426
108.0800 7.9649
108.0900 14.6930
108.1000 18.2208
108.1100 18.7851
108.1200 7.3811
108.1300 10.0373
108.1400 13.0463
108.1500 7.1198
108.1600 11.5669
108.1700 7.3749
108.1800 11.9836
108.1900 9.3849
108.2000 8.7387
108.2100 7.6343
108.2200 10.0792
108.2300 7.0930
108.2400 7.5933
108.2500 7.3232
108.2600 6.7385
108.2700 14.0483
108.2800 9.4299
108.2900 6.6842
108.3000 10.7283
108.3100 7.3153
108.3200 9.9529
108.3300 9.1107
108.3400 8.9972
108.3500 11.7507
108.3600 5.4813
108.3700 5.4693
108.3800 12.9534
108.3900 11.9788
108.4000 7.0372
108.4100 2.6595
108.4200 7.0775
108.4300 2.6144
108.4400 5.2267
108.4500 5.5716
108.4600 6.1581
108.4700 15.0097
108.4800 8.3174
108.4900 11.3985
108.5000 8.9684
108.5100 11.6539
108.5200 4.3658
108.5300 6.9302
108.5400 5.3405
108.5500 5.4972
108.5600 5.5969
108.5700 7.0051
108.5800 10.6074
108.5900 2.4348
108.6000 4.4319
108.6100 8.0709
108.6200 5.4631
108.6300 6.8273
108.6400 6.8395
108.6500 5.1665
108.6600 7.4371
108.6700 10.4103
108.6800 6.4535
108.6900 4.1963
108.7000 6.9460
108.7100 5.2621
108.7200 6.5734
108.7300 7.0022
108.7400 6.2454
108.7500 5.7573
108.7600 5.8337
108.7700 5.9091
108.7800 9.7510
108.7900 5.4613
108.8000 2.2567
108.8100 6.9466
108.8200 3.6118
108.8300 9.1098
108.8400 6.2850
108.8500 4.7294
108.8600 9.7733
108.8700 10.2336
108.8800 8.9265
108.8900 7.5825
108.9000 3.8639
108.9100 12.1830
108.9200 13.3101
108.9300 8.5129
108.9400 14.0052
108.9500 11.3868
108.9600 9.0927
108.9700 7.1838
108.9800 5.5269
108.9900 5.0180
109.0000 2.0389
109.0100 5.0148
109.0200 7.6200
109.0300 11.5236
109.0400 9.3268
109.0500 7.3263
109.0600 7.4300
109.0700 6.8359
109.0800 6.9532
109.0900 6.8181
109.1000 1.3475
109.1100 6.6442
109.1200 5.3587
109.1300 5.1475
109.1400 3.1049
109.1500 5.2358
109.1600 10.4356
109.1700 9.4987
109.1800 8.5031
109.1900 5.4264
109.2000 9.2927
109.2100 6.3504
109.2200 8.2207
109.2300 8.7451
109.2400 6.2886
109.2500 5.8882
109.2600 8.0831
109.2700 7.0164
109.2800 4.2718
109.2900 6.4353
109.3000 5.2644
109.3100 8.3968
109.3200 9.7996
109.3300 9.5900
109.3400 6.2663
109.3500 10.5042
109.3600 9.0124
109.3700 6.9982
109.3800 9.4920
109.3900 11.6193
109.4000 6.9087
109.4100 5.6091
109.4200 8.8418
109.4300 18.5853
109.4400 12.3864
109.4500 8.3433
109.4600 7.9555
109.4700 6.5644
109.4800 5.5855
109.4900 9.8187
109.5000 6.6549
109.5100 9.3651
109.5200 6.6123
109.5300 8.6450
109.5400 2.1225
109.5500 11.4233
109.5600 7.0813
109.5700 6.3491
109.5800 6.9710
109.5900 12.8481
109.6000 11.0861
109.6100 10.6133
109.6200 10.0556
109.6300 7.3821
109.6400 10.5904
109.6500 5.6043
109.6600 7.4292
109.6700 9.3131
109.6800 6.2658
109.6900 4.6432
109.7000 3.9162
109.7100 8.7701
109.7200 10.7943
109.7300 5.8056
109.7400 7.6790
109.7500 5.5257
109.7600 8.8042
109.7700 15.7445
109.7800 10.5663
109.7900 9.3666
109.8000 9.3833
109.8100 8.3969
109.8200 5.7999
109.8300 10.8697
109.8400 5.4440
109.8500 6.7130
109.8600 6.4372
109.8700 9.7912
109.8800 8.9540
109.8900 6.5253
109.9000 4.4915
109.9100 5.0860
109.9200 5.6790
109.9300 7.6501
109.9400 5.2546
109.9500 11.1055
109.9600 7.4954
109.9700 12.1524
109.9800 6.2119
109.9900 8.6720
110.0000 14.2751
110.0100 7.1853
110.0200 8.5471
110.0300 9.7110
110.0400 8.4618
110.0500 8.5445
110.0600 6.9795
110.0700 7.1818
110.0800 13.5344
110.0900 9.3410
110.1000 5.9582
110.1100 2.7910
110.1200 6.5141
110.1300 8.0930
110.1400 9.7592
110.1500 8.6389
110.1600 8.1328
110.1700 7.2502
110.1800 12.1981
110.1900 7.2057
110.2000 8.3745
110.2100 8.8684
110.2200 6.4925
110.2300 12.4677
110.2400 8.2595
110.2500 11.2405
110.2600 11.1402
110.2700 12.6181
110.2800 13.2538
110.2900 5.9361
110.3000 8.7082
110.3100 9.7394
110.3200 9.1415
110.3300 11.8591
110.3400 7.4246
110.3500 8.4577
110.3600 13.2708
110.3700 7.8237
110.3800 7.6678
110.3900 3.8814
110.4000 6.7534
110.4100 7.9023
110.4200 6.6989
110.4300 6.7818
110.4400 13.3776
110.4500 9.7697
110.4600 7.3334
110.4700 6.7930
110.4800 5.6339
110.4900 4.1753
110.5000 8.3338
110.5100 8.3262
110.5200 10.5099
110.5300 12.1624
110.5400 5.5464
110.5500 7.3747
110.5600 7.4635
110.5700 6.5765
110.5800 0.6123
110.5900 6.8641
110.6000 3.2102
110.6100 5.2828
110.6200 6.3012
110.6300 2.3374
110.6400 4.4682
110.6500 6.8463
110.6600 7.2000
110.6700 4.0243
110.6800 9.4524
110.6900 10.1121
110.7000 4.3012
110.7100 7.8800
110.7200 8.5413
110.7300 4.9282
110.7400 7.1010
110.7500 9.3647
110.7600 9.2643
110.7700 7.2636
110.7800 6.1452
110.7900 10.5721
110.8000 6.3418
110.8100 10.2651
110.8200 13.0820
110.8300 6.0569
110.8400 4.1485
110.8500 3.8996
110.8600 4.2223
110.8700 3.1850
110.8800 4.5923
110.8900 11.1525
110.9000 4.7242
110.9100 8.9592
110.9200 9.8362
110.9300 11.4179
110.9400 10.3428
110.9500 5.3128
110.9600 12.6345
110.9700 5.8744
110.9800 7.9753
110.9900 7.9304
111.0000 5.6997
111.0100 7.8472
111.0200 4.1166
111.0300 6.2714
111.0400 4.7567
111.0500 11.0326
111.0600 6.3598
111.0700 2.1735
111.0800 11.4372
111.0900 6.4802
111.1000 4.4797
111.1100 5.2333
111.1200 6.7921
111.1300 6.7172
111.1400 6.2349
111.1500 6.7372
111.1600 6.7209
111.1700 7.6983
111.1800 10.9698
111.1900 11.2908
111.2000 7.9831
111.2100 9.5797
111.2200 7.1861
111.2300 6.3550
111.2400 7.2084
111.2500 10.7299
111.2600 7.1890
111.2700 6.9585
111.2800 7.0454
111.2900 10.2501
111.3000 7.9098
111.3100 10.0152
111.3200 6.5327
111.3300 7.5015
111.3400 6.6400
111.3500 7.1769
111.3600 2.7577
111.3700 10.3709
111.3800 5.0400
111.3900 7.8317
111.4000 3.4970
111.4100 6.6390
111.4200 9.1200
111.4300 5.8419
111.4400 6.9836
111.4500 10.8318
111.4600 6.9058
111.4700 8.9090
111.4800 7.3951
111.4900 3.7419
111.5000 2.9019
111.5100 6.1781
111.5200 5.2629
111.5300 6.4841
111.5400 6.1175
111.5500 8.7532
111.5600 8.4616
111.5700 6.3392
111.5800 8.4564
111.5900 7.8251
111.6000 9.2894
111.6100 9.1876
111.6200 6.4612
111.6300 8.3026
111.6400 7.0910
111.6500 8.4875
111.6600 9.0806
111.6700 4.0558
111.6800 16.4031
111.6900 6.8128
111.7000 5.5780
111.7100 10.4618
111.7200 12.1575
111.7300 10.9432
111.7400 10.2292
111.7500 8.0728
111.7600 7.8679
111.7700 5.2777
111.7800 6.0931
111.7900 6.8613
111.8000 15.2026
111.8100 5.8412
111.8200 8.7373
111.8300 7.7824
111.8400 8.4175
111.8500 10.0944
111.8600 12.0139
111.8700 9.5778
111.8800 11.1705
111.8900 6.6054
111.9000 15.3519
111.9100 2.4005
111.9200 4.9774
111.9300 8.5130
111.9400 10.8774
111.9500 7.5657
111.9600 7.5823
111.9700 7.0159
111.9800 5.2778
111.9900 9.3729
112.0000 11.4513
112.0100 8.8079
112.0200 4.0337
112.0300 6.6284
112.0400 7.5476
112.0500 12.1598
112.0600 6.0263
112.0700 13.3056
112.0800 5.7861
112.0900 9.1282
112.1000 5.4827
112.1100 10.4167
112.1200 8.1142
112.1300 8.3701
112.1400 6.1633
112.1500 8.8535
112.1600 6.0052
112.1700 6.2789
112.1800 1.8708
112.1900 5.8631
112.2000 13.1145
112.2100 9.4065
112.2200 10.0606
112.2300 9.4693
112.2400 4.8379
112.2500 5.7986
112.2600 10.3419
112.2700 7.3435
112.2800 3.8033
112.2900 11.9266
112.3000 5.5926
112.3100 7.8723
112.3200 5.6379
112.3300 4.4708
112.3400 6.0233
112.3500 12.2036
112.3600 7.5651
112.3700 11.3765
112.3800 6.5733
112.3900 6.5082
112.4000 5.5099
112.4100 7.2685
112.4200 12.6214
112.4300 5.9309
112.4400 8.1303
112.4500 6.7382
112.4600 5.3890
112.4700 9.8682
112.4800 5.4418
112.4900 14.2372
112.5000 10.7353
112.5100 6.4276
112.5200 11.0773
112.5300 5.4989
112.5400 5.1189
112.5500 8.8329
112.5600 6.9262
112.5700 6.4191
112.5800 4.7459
112.5900 6.7483
112.6000 10.7621
112.6100 5.4253
112.6200 6.1408
112.6300 6.2363
112.6400 3.8497
112.6500 9.4531
112.6600 8.5281
112.6700 10.6500
112.6800 5.0366
112.6900 8.4612
112.7000 8.1109
112.7100 11.3469
112.7200 5.9290
112.7300 13.4099
112.7400 5.5095
112.7500 12.7495
112.7600 8.0100
112.7700 7.2748
112.7800 9.3201
112.7900 6.2244
112.8000 5.1591
112.8100 6.0503
112.8200 13.6467
112.8300 6.9664
112.8400 11.3557
112.8500 12.1411
112.8600 5.4912
112.8700 13.3302
112.8800 11.0454
112.8900 16.3805
112.9000 9.3860
112.9100 16.5941
112.9200 7.2037
112.9300 14.0762
112.9400 5.4610
112.9500 11.4521
112.9600 6.1728
112.9700 9.7202
112.9800 7.5249
112.9900 7.8831
113.0000 9.1835
113.0100 4.5062
113.0200 9.9868
113.0300 12.2553
113.0400 15.6663
113.0500 7.6032
113.0600 5.9685
113.0700 8.7735
113.0800 6.0978
113.0900 4.4217
113.1000 7.1956
113.1100 5.3064
113.1200 8.4224
113.1300 10.1128
113.1400 11.2925
113.1500 6.5388
113.1600 10.0316
113.1700 6.1027
113.1800 8.3865
113.1900 5.8136
113.2000 4.7825
113.2100 5.4131
113.2200 9.4247
113.2300 10.7359
113.2400 5.4030
113.2500 6.4524
113.2600 13.4885
113.2700 5.8440
113.2800 7.0860
113.2900 9.9356
113.3000 8.0195
113.3100 10.4035
113.3200 11.1801
113.3300 2.4287
113.3400 6.6072
113.3500 9.8848
113.3600 7.5076
113.3700 9.1632
113.3800 9.8512
113.3900 5.7646
113.4000 7.2537
113.4100 11.7406
113.4200 10.0187
113.4300 16.8164
113.4400 8.7166
113.4500 14.4979
113.4600 6.0416
113.4700 15.9975
113.4800 11.1753
113.4900 8.5708
113.5000 3.8188
113.5100 6.6044
113.5200 7.0384
113.5300 9.2421
113.5400 10.4710
113.5500 5.1613
113.5600 5.6711
113.5700 9.0850
113.5800 10.5235
113.5900 8.4576
113.6000 5.8841
113.6100 11.2491
113.6200 9.5011
113.6300 6.3103
113.6400 10.0335
113.6500 7.7919
113.6600 11.7206
113.6700 8.6219
113.6800 11.2157
113.6900 5.4912
113.7000 10.9919
113.7100 6.9794
113.7200 17.9854
113.7300 7.7914
113.7400 16.2654
113.7500 7.7907
113.7600 13.8483
113.7700 6.3740
113.7800 12.9530
113.7900 2.6627
113.8000 11.2648
113.8100 6.2997
113.8200 8.5808
113.8300 10.3849
113.8400 6.2764
113.8500 7.2194
113.8600 7.9894
113.8700 7.4882
113.8800 7.7283
113.8900 8.7785
113.9000 5.7317
113.9100 7.5820
113.9200 7.0294
113.9300 9.6338
113.9400 6.7871
113.9500 5.8317
113.9600 4.9640
113.9700 9.7054
113.9800 12.1005
113.9900 3.3499
114.0000 4.2300
114.0100 8.3398
114.0200 10.1312
114.0300 7.1134
114.0400 8.8241
114.0500 12.9687
114.0600 8.3817
114.0700 8.6459
114.0800 8.5298
114.0900 12.8991
114.1000 5.4784
114.1100 11.1645
114.1200 7.3114
114.1300 14.1016
114.1400 5.0055
114.1500 6.5163
114.1600 10.2769
114.1700 12.4125
114.1800 12.1156
114.1900 8.7502
114.2000 18.9637
114.2100 13.8860
114.2200 12.9427
114.2300 7.0249
114.2400 12.6571
114.2500 3.4442
114.2600 4.6658
114.2700 6.6922
114.2800 7.7321
114.2900 7.4001
114.3000 6.3169
114.3100 7.3944
114.3200 2.1693
114.3300 6.2164
114.3400 4.7879
114.3500 4.5229
114.3600 9.6985
114.3700 4.5130
114.3800 6.2885
114.3900 6.3925
114.4000 6.7921
114.4100 5.4400
114.4200 7.2740
114.4300 5.5421
114.4400 9.4221
114.4500 6.1285
114.4600 4.0366
114.4700 5.2859
114.4800 6.0923
114.4900 5.7109
114.5000 12.5781
114.5100 8.6194
114.5200 11.9751
114.5300 4.2447
114.5400 10.7917
114.5500 9.4829
114.5600 9.3422
114.5700 8.8429
114.5800 11.1315
114.5900 7.5459
114.6000 12.9080
114.6100 9.1433
114.6200 9.1856
114.6300 6.2261
114.6400 9.8761
114.6500 7.8248
114.6600 7.1829
114.6700 7.4483
114.6800 6.8108
114.6900 5.9289
114.7000 9.2916
114.7100 7.6820
114.7200 3.8614
114.7300 10.0755
114.7400 10.0547
114.7500 6.9938
114.7600 6.6924
114.7700 3.8165
114.7800 5.1886
114.7900 8.2097
114.8000 7.5120
114.8100 4.5071
114.8200 6.4386
114.8300 8.9978
114.8400 12.7931
114.8500 9.1733
114.8600 6.4009
114.8700 6.8091
114.8800 10.5768
114.8900 5.5560
114.9000 5.2764
114.9100 6.3056
114.9200 3.8504
114.9300 5.8469
114.9400 11.9607
114.9500 7.3876
114.9600 8.0345
114.9700 5.0637
114.9800 2.8597
114.9900 8.4562
115.0000 9.2661
115.0100 5.5510
115.0200 1.5445
115.0300 5.8323
115.0400 8.9806
115.0500 4.3896
115.0600 10.4713
115.0700 9.5229
115.0800 9.0144
115.0900 6.9587
115.1000 5.4541
115.1100 6.1876
115.1200 13.1076
115.1300 8.6412
115.1400 19.8948
115.1500 7.8627
115.1600 11.9090
115.1700 1.7249
115.1800 10.2516
115.1900 7.1945
115.2000 5.8512
115.2100 7.9835
115.2200 4.6446
115.2300 6.9677
115.2400 7.2773
115.2500 4.8986
115.2600 3.4060
115.2700 10.2637
115.2800 7.2503
115.2900 3.8345
115.3000 7.1755
115.3100 5.9822
115.3200 10.3860
115.3300 3.6415
115.3400 7.1613
115.3500 7.6676
115.3600 7.4228
115.3700 13.8369
115.3800 2.9367
115.3900 11.6398
115.4000 10.0248
115.4100 9.1625
115.4200 6.2100
115.4300 4.4946
115.4400 5.4260
115.4500 8.5964
115.4600 10.6956
115.4700 9.7194
115.4800 13.5423
115.4900 3.3940
115.5000 7.7128
115.5100 7.6847
115.5200 7.7380
115.5300 11.4122
115.5400 10.9850
115.5500 6.3862
115.5600 5.5614
115.5700 12.2604
115.5800 7.6799
115.5900 6.0775
115.6000 4.6589
115.6100 6.1921
115.6200 6.8018
115.6300 7.9279
115.6400 13.4463
115.6500 10.8072
115.6600 5.9026
115.6700 6.5153
115.6800 5.5023
115.6900 15.1541
115.7000 2.0711
115.7100 9.4309
115.7200 2.6052
115.7300 13.0420
115.7400 5.4975
115.7500 8.2582
115.7600 8.4372
115.7700 15.9992
115.7800 13.2105
115.7900 5.7253
115.8000 8.3585
115.8100 7.9418
115.8200 6.7780
115.8300 7.5925
115.8400 9.1474
115.8500 5.2265
115.8600 9.8141
115.8700 4.3520
115.8800 5.8599
115.8900 8.9393
115.9000 3.3022
115.9100 6.4246
115.9200 10.4003
115.9300 11.7415
115.9400 3.8991
115.9500 9.0998
115.9600 7.0366
115.9700 10.3674
115.9800 8.5189
115.9900 6.8499
116.0000 12.4834
116.0100 6.7134
116.0200 10.5052
116.0300 6.3808
116.0400 7.6365
116.0500 8.2188
116.0600 9.4770
116.0700 9.9464
116.0800 8.2433
116.0900 6.3468
116.1000 5.7180
116.1100 5.5007
116.1200 6.1029
116.1300 3.6342
116.1400 4.8949
116.1500 5.4700
116.1600 10.3679
116.1700 11.0257
116.1800 7.0074
116.1900 10.8674
116.2000 6.1605
116.2100 4.6221
116.2200 5.1440
116.2300 5.3566
116.2400 5.3925
116.2500 4.2967
116.2600 7.2786
116.2700 10.2897
116.2800 3.6219
116.2900 9.7107
116.3000 7.5917
116.3100 8.9050
116.3200 4.5256
116.3300 7.5120
116.3400 11.4964
116.3500 11.5727
116.3600 7.6362
116.3700 7.9167
116.3800 11.9600
116.3900 4.3403
116.4000 8.5308
116.4100 8.3966
116.4200 6.5701
116.4300 7.1413
116.4400 14.1590
116.4500 5.3005
116.4600 8.7820
116.4700 10.2327
116.4800 8.5129
116.4900 11.4069
116.5000 11.8539
116.5100 11.1813
116.5200 10.1858
116.5300 10.9858
116.5400 12.3686
116.5500 13.5436
116.5600 12.7664
116.5700 10.4432
116.5800 10.5598
116.5900 15.4131
116.6000 11.2584
116.6100 15.5451
116.6200 8.8415
116.6300 16.4646
116.6400 14.6294
116.6500 12.7458
116.6600 20.8808
116.6700 15.5683
116.6800 15.3886
116.6900 14.4229
116.7000 11.9185
116.7100 18.6192
116.7200 17.2918
116.7300 13.9863
116.7400 13.4688
116.7500 14.2428
116.7600 19.0461
116.7700 26.8502
116.7800 26.8470
116.7900 24.9372
116.8000 28.4732
116.8100 23.5614
116.8200 24.3568
116.8300 24.2878
116.8400 27.0828
116.8500 22.9717
116.8600 22.0338
116.8700 23.9957
116.8800 27.5971
116.8900 17.6822
116.9000 17.1403
116.9100 19.1246
116.9200 28.1436
116.9300 33.7570
116.9400 27.7234
116.9500 20.6860
116.9600 18.6123
116.9700 29.5244
116.9800 26.7906
116.9900 21.6020
117.0000 20.5165
117.0100 21.5995
117.0200 23.6220
117.0300 20.0214
117.0400 22.1684
117.0500 23.9779
117.0600 9.8182
117.0700 10.4011
117.0800 17.0980
117.0900 11.1291
117.1000 14.0030
117.1100 14.8435
117.1200 10.2972
117.1300 15.9456
117.1400 17.1913
117.1500 15.4704
117.1600 17.6410
117.1700 14.4754
117.1800 16.9727
117.1900 14.5114
117.2000 15.4507
117.2100 12.9428
117.2200 7.9811
117.2300 10.9101
117.2400 8.2736
117.2500 7.8628
117.2600 10.5009
117.2700 11.3750
117.2800 12.2389
117.2900 11.8347
117.3000 12.0418
117.3100 7.4561
117.3200 8.4054
117.3300 9.8794
117.3400 4.8280
117.3500 6.1963
117.3600 9.0069
117.3700 9.9796
117.3800 8.5201
117.3900 7.3656
117.4000 6.5051
117.4100 11.0699
117.4200 8.6698
117.4300 4.2498
117.4400 6.7974
117.4500 11.5656
117.4600 9.3622
117.4700 8.7962
117.4800 7.5788
117.4900 7.2376
117.5000 5.2415
117.5100 5.5913
117.5200 10.7426
117.5300 10.2088
117.5400 3.9798
117.5500 5.4966
117.5600 7.0596
117.5700 9.9814
117.5800 11.4495
117.5900 6.3990
117.6000 9.4378
117.6100 9.2645
117.6200 6.8028
117.6300 11.8145
117.6400 9.0533
117.6500 12.2273
117.6600 13.0395
117.6700 9.0270
117.6800 9.4227
117.6900 7.9975
117.7000 5.3469
117.7100 10.1392
117.7200 10.8540
117.7300 4.0253
117.7400 3.4425
117.7500 2.0475
117.7600 6.2212
117.7700 6.5336
117.7800 7.5649
117.7900 8.5010
117.8000 5.5677
117.8100 8.5439
117.8200 6.1047
117.8300 4.3663
117.8400 7.0845
117.8500 8.1650
117.8600 5.3624
117.8700 3.3088
117.8800 6.4287
117.8900 4.0137
117.9000 9.9191
117.9100 9.1712
117.9200 8.3705
117.9300 11.0903
117.9400 8.5941
117.9500 11.1002
117.9600 8.5430
117.9700 6.2044
117.9800 8.4016
117.9900 7.6627
118.0000 4.7797
118.0100 12.9343
118.0200 6.4578
118.0300 11.4947
118.0400 6.4131
118.0500 10.0574
118.0600 7.7865
118.0700 6.2359
118.0800 10.4589
118.0900 10.5173
118.1000 11.3705
118.1100 5.9100
118.1200 7.3524
118.1300 6.8328
118.1400 8.5042
118.1500 6.5471
118.1600 6.9632
118.1700 4.8465
118.1800 6.0207
118.1900 5.0930
118.2000 9.2736
118.2100 6.9854
118.2200 7.3328
118.2300 7.1939
118.2400 5.3856
118.2500 8.0861
118.2600 5.5050
118.2700 3.2527
118.2800 12.7247
118.2900 11.8188
118.3000 8.7015
118.3100 3.8182
118.3200 6.9224
118.3300 6.3230
118.3400 18.1541
118.3500 8.0787
118.3600 12.2496
118.3700 7.1228
118.3800 11.1417
118.3900 11.1104
118.4000 9.7360
118.4100 10.6699
118.4200 6.3075
118.4300 7.8688
118.4400 9.5875
118.4500 11.7076
118.4600 11.5633
118.4700 13.1011
118.4800 4.8368
118.4900 5.4750
118.5000 5.2054
118.5100 3.0837
118.5200 3.0853
118.5300 3.1973
118.5400 5.4314
118.5500 9.2834
118.5600 7.4132
118.5700 8.0938
118.5800 9.4766
118.5900 7.5345
118.6000 11.6838
118.6100 7.8510
118.6200 7.9684
118.6300 8.7708
118.6400 7.0196
118.6500 10.3132
118.6600 9.1470
118.6700 7.7638
118.6800 8.1650
118.6900 11.7819
118.7000 3.2379
118.7100 5.9146
118.7200 6.3692
118.7300 12.9137
118.7400 6.2327
118.7500 12.1334
118.7600 8.6442
118.7700 6.3725
118.7800 10.1599
118.7900 7.6425
118.8000 12.9021
118.8100 6.6454
118.8200 10.6112
118.8300 7.7172
118.8400 8.9907
118.8500 11.2952
118.8600 6.8978
118.8700 10.3548
118.8800 7.8240
118.8900 10.5330
118.9000 8.3736
118.9100 5.2988
118.9200 9.4460
118.9300 3.0967
118.9400 10.3929
118.9500 5.7569
118.9600 4.8814
118.9700 4.3317
118.9800 6.4902
118.9900 8.3795
119.0000 10.9779
119.0100 10.2642
119.0200 6.0059
119.0300 5.2690
119.0400 7.3829
119.0500 7.0444
119.0600 7.9668
119.0700 8.8873
119.0800 8.4049
119.0900 9.9780
119.1000 5.0371
119.1100 8.3456
119.1200 7.8285
119.1300 3.4702
119.1400 8.7662
119.1500 8.4735
119.1600 6.6782
119.1700 7.7487
119.1800 14.2525
119.1900 8.7335
119.2000 13.6020
119.2100 6.1928
119.2200 13.9557
119.2300 11.1650
119.2400 16.5039
119.2500 10.1031
119.2600 11.6692
119.2700 17.0963
119.2800 13.5694
119.2900 8.3497
119.3000 9.0994
119.3100 7.8885
119.3200 9.1705
119.3300 2.5715
119.3400 6.2930
119.3500 3.0973
119.3600 7.5460
119.3700 9.0800
119.3800 10.7283
119.3900 4.8840
119.4000 12.3666
119.4100 7.1189
119.4200 8.2530
119.4300 7.9792
119.4400 5.8523
119.4500 8.6877
119.4600 7.9638
119.4700 9.1155
119.4800 9.6398
119.4900 13.8961
119.5000 13.1373
119.5100 8.3111
119.5200 11.2511
119.5300 8.3142
119.5400 7.7154
119.5500 12.8720
119.5600 6.4315
119.5700 5.3987
119.5800 2.9260
119.5900 6.5644
119.6000 3.0458
119.6100 8.0378
119.6200 3.1845
119.6300 8.3875
119.6400 6.6008
119.6500 7.0986
119.6600 8.6497
119.6700 7.3901
119.6800 5.0007
119.6900 5.4753
119.7000 10.5421
119.7100 4.6591
119.7200 6.1078
119.7300 8.4050
119.7400 6.8012
119.7500 6.8598
119.7600 7.8363
119.7700 4.1149
119.7800 4.8008
119.7900 7.1556
119.8000 7.3517
119.8100 9.5732
119.8200 7.3150
119.8300 6.8258
119.8400 6.8520
119.8500 7.3446
119.8600 5.0805
119.8700 7.2938
119.8800 8.2628
119.8900 5.7395
119.9000 7.6697
119.9100 9.5843
119.9200 5.5022
119.9300 7.2489
119.9400 6.4434
119.9500 9.1848
119.9600 6.1799
119.9700 6.2543
119.9800 15.0318
119.9900 8.7116
