#Collected Data-22
#Intensity_unit=counts
#Attenuator_coefficient=1.000000
40.0000 11.3049
40.0100 12.1648
40.0200 10.7785
40.0300 9.2805
40.0400 6.1968
40.0500 12.1006
40.0600 8.3553
40.0700 11.1087
40.0800 12.0440
40.0900 13.6167
40.1000 13.2945
40.1100 11.4812
40.1200 7.6161
40.1300 9.9690
40.1400 8.7614
40.1500 11.5655
40.1600 15.5125
40.1700 8.1778
40.1800 17.1216
40.1900 5.8729
40.2000 9.2416
40.2100 10.1372
40.2200 9.0554
40.2300 10.0908
40.2400 9.1134
40.2500 11.7873
40.2600 8.7119
40.2700 5.2325
40.2800 6.7201
40.2900 10.3639
40.3000 5.0344
40.3100 9.6740
40.3200 9.1322
40.3300 7.0603
40.3400 10.8840
40.3500 17.4817
40.3600 10.1930
40.3700 15.1660
40.3800 9.8534
40.3900 11.1005
40.4000 5.6169
40.4100 8.4525
40.4200 10.0498
40.4300 10.0002
40.4400 4.9046
40.4500 12.4174
40.4600 11.2461
40.4700 8.1048
40.4800 5.1255
40.4900 6.9899
40.5000 17.3650
40.5100 8.0590
40.5200 7.4792
40.5300 11.3468
40.5400 11.6200
40.5500 7.3489
40.5600 8.8684
40.5700 9.6590
40.5800 12.8840
40.5900 12.0419
40.6000 12.5961
40.6100 15.4130
40.6200 14.6050
40.6300 9.9500
40.6400 11.7200
40.6500 11.6775
40.6600 11.4101
40.6700 14.2177
40.6800 16.1097
40.6900 14.4659
40.7000 6.7728
40.7100 8.1773
40.7200 10.0094
40.7300 7.2713
40.7400 8.1445
40.7500 7.0168
40.7600 9.3061
40.7700 14.5948
40.7800 7.2370
40.7900 10.2043
40.8000 8.3464
40.8100 12.4531
40.8200 13.4194
40.8300 13.1035
40.8400 9.7521
40.8500 8.4504
40.8600 7.5148
40.8700 5.4349
40.8800 4.8893
40.8900 13.0943
40.9000 8.6539
40.9100 9.8412
40.9200 6.2084
40.9300 12.3041
40.9400 9.4953
40.9500 10.2973
40.9600 7.9421
40.9700 5.7633
40.9800 4.3459
40.9900 15.1220
41.0000 7.5473
41.0100 8.3316
41.0200 13.3345
41.0300 8.2200
41.0400 9.0241
41.0500 7.3102
41.0600 11.3901
41.0700 10.9859
41.0800 9.4177
41.0900 12.9707
41.1000 8.5309
41.1100 9.0703
41.1200 7.0239
41.1300 11.6612
41.1400 8.0955
41.1500 10.8431
41.1600 8.8245
41.1700 8.2921
41.1800 11.7024
41.1900 17.3763
41.2000 8.8994
41.2100 12.5353
41.2200 12.5516
41.2300 6.4599
41.2400 8.7864
41.2500 8.0765
41.2600 8.5623
41.2700 12.1469
41.2800 15.8752
41.2900 12.8064
41.3000 18.5962
41.3100 15.4589
41.3200 8.5568
41.3300 15.4797
41.3400 13.3030
41.3500 15.5525
41.3600 13.0937
41.3700 12.1478
41.3800 17.3005
41.3900 9.5989
41.4000 10.3101
41.4100 6.3897
41.4200 11.9917
41.4300 14.7129
41.4400 21.3085
41.4500 13.3413
41.4600 7.4825
41.4700 9.3933
41.4800 9.5992
41.4900 15.8485
41.5000 12.3534
41.5100 13.7075
41.5200 13.4808
41.5300 16.1580
41.5400 7.5982
41.5500 12.1595
41.5600 10.1429
41.5700 15.4243
41.5800 10.1303
41.5900 15.9782
41.6000 15.5307
41.6100 11.6361
41.6200 16.3894
41.6300 9.3261
41.6400 16.3232
41.6500 7.6464
41.6600 8.3919
41.6700 10.5486
41.6800 6.7277
41.6900 9.8150
41.7000 11.9376
41.7100 16.0800
41.7200 10.2192
41.7300 21.1357
41.7400 13.9290
41.7500 22.3466
41.7600 10.7498
41.7700 10.7259
41.7800 10.1225
41.7900 10.0491
41.8000 12.7082
41.8100 10.8679
41.8200 6.3659
41.8300 13.6195
41.8400 10.2581
41.8500 13.7704
41.8600 6.1098
41.8700 12.0569
41.8800 5.5639
41.8900 6.0595
41.9000 7.5708
41.9100 10.3065
41.9200 8.3484
41.9300 12.7121
41.9400 9.8221
41.9500 11.5879
41.9600 7.5963
41.9700 11.5016
41.9800 10.3765
41.9900 8.0483
42.0000 9.6405
42.0100 8.4165
42.0200 10.1759
42.0300 5.1605
42.0400 4.8768
42.0500 13.8806
42.0600 6.7374
42.0700 8.0284
42.0800 10.5344
42.0900 7.1671
42.1000 7.6949
42.1100 9.1205
42.1200 10.9632
42.1300 13.3912
42.1400 8.8900
42.1500 8.1623
42.1600 8.5640
42.1700 7.0740
42.1800 6.7679
42.1900 12.9551
42.2000 7.4303
42.2100 7.1658
42.2200 7.5034
42.2300 10.8337
42.2400 4.9203
42.2500 12.6516
42.2600 10.8919
42.2700 7.3635
42.2800 9.2344
42.2900 4.2423
42.3000 4.2566
42.3100 6.1763
42.3200 13.8063
42.3300 7.7590
42.3400 6.2543
42.3500 11.2813
42.3600 6.3804
42.3700 5.3231
42.3800 12.4598
42.3900 6.8679
42.4000 9.1967
42.4100 9.4309
42.4200 10.3937
42.4300 6.6718
42.4400 8.3747
42.4500 11.5386
42.4600 9.2699
42.4700 8.9061
42.4800 7.4277
42.4900 9.4546
42.5000 11.3856
42.5100 5.8033
42.5200 13.7641
42.5300 12.0613
42.5400 7.7096
42.5500 8.2412
42.5600 9.5471
42.5700 12.3221
42.5800 6.6207
42.5900 8.2534
42.6000 9.5140
42.6100 12.4341
42.6200 8.0946
42.6300 5.9721
42.6400 9.8552
42.6500 12.6213
42.6600 7.0466
42.6700 11.7601
42.6800 9.3360
42.6900 10.9943
42.7000 15.7920
42.7100 14.5326
42.7200 7.2807
42.7300 7.8834
42.7400 9.4861
42.7500 8.8758
42.7600 11.6032
42.7700 9.0815
42.7800 14.0519
42.7900 6.0029
42.8000 9.9744
42.8100 10.0385
42.8200 11.9278
42.8300 4.3240
42.8400 5.7371
42.8500 10.0794
42.8600 7.9034
42.8700 11.3611
42.8800 9.7786
42.8900 6.5812
42.9000 6.6405
42.9100 12.5816
42.9200 10.4279
42.9300 16.1898
42.9400 8.0562
42.9500 7.0227
42.9600 11.2736
42.9700 12.6758
42.9800 7.7484
42.9900 8.9426
43.0000 12.2348
43.0100 6.6507
43.0200 10.2152
43.0300 11.6691
43.0400 15.4074
43.0500 12.7909
43.0600 14.3500
43.0700 6.3826
43.0800 11.4003
43.0900 5.9892
43.1000 12.0977
43.1100 8.3222
43.1200 12.0839
43.1300 10.6009
43.1400 11.0541
43.1500 11.0476
43.1600 10.9558
43.1700 10.2359
43.1800 9.7934
43.1900 9.2127
43.2000 12.7299
43.2100 6.0491
43.2200 10.2276
43.2300 9.4967
43.2400 9.0657
43.2500 10.0170
43.2600 7.7514
43.2700 16.5090
43.2800 9.1611
43.2900 7.5862
43.3000 10.6011
43.3100 13.5744
43.3200 7.7144
43.3300 12.2928
43.3400 3.5115
43.3500 8.6545
43.3600 8.0168
43.3700 10.3026
43.3800 9.3902
43.3900 6.2339
43.4000 7.2317
43.4100 8.9790
43.4200 8.1691
43.4300 15.4046
43.4400 14.8500
43.4500 22.9330
43.4600 8.8515
43.4700 18.4768
43.4800 9.8575
43.4900 15.5713
43.5000 14.1463
43.5100 11.1627
43.5200 7.6527
43.5300 8.7039
43.5400 7.5774
43.5500 10.7822
43.5600 14.4617
43.5700 15.8710
43.5800 14.4647
43.5900 14.8009
43.6000 9.6175
43.6100 8.9699
43.6200 14.3816
43.6300 13.4000
43.6400 8.9576
43.6500 9.3346
43.6600 12.2796
43.6700 8.4664
43.6800 11.3477
43.6900 13.9631
43.7000 14.5917
43.7100 13.9213
43.7200 8.0071
43.7300 8.9397
43.7400 9.5169
43.7500 12.0543
43.7600 10.5405
43.7700 4.4224
43.7800 14.4432
43.7900 11.0772
43.8000 5.2852
43.8100 6.4053
43.8200 13.7760
43.8300 11.0254
43.8400 5.6465
43.8500 6.7702
43.8600 8.5109
43.8700 9.1701
43.8800 7.8394
43.8900 5.9611
43.9000 3.1598
43.9100 7.8714
43.9200 10.3928
43.9300 12.9948
43.9400 14.8300
43.9500 11.3529
43.9600 9.8991
43.9700 12.3654
43.9800 5.2125
43.9900 8.0830
44.0000 8.4393
44.0100 14.8476
44.0200 12.8284
44.0300 13.0982
44.0400 10.1827
44.0500 10.0985
44.0600 11.1425
44.0700 20.1701
44.0800 3.5624
44.0900 5.1652
44.1000 7.7110
44.1100 10.6546
44.1200 7.1840
44.1300 8.3389
44.1400 9.8719
44.1500 12.3509
44.1600 9.8814
44.1700 11.4714
44.1800 15.5573
44.1900 8.3622
44.2000 12.1814
44.2100 12.0445
44.2200 8.1856
44.2300 10.7939
44.2400 10.1107
44.2500 13.2931
44.2600 9.3382
44.2700 11.1975
44.2800 10.0208
44.2900 7.9889
44.3000 14.4840
44.3100 13.8264
44.3200 15.5301
44.3300 14.5833
44.3400 19.0649
44.3500 13.7074
44.3600 18.0527
44.3700 12.9939
44.3800 15.6128
44.3900 10.9775
44.4000 7.3307
44.4100 7.6544
44.4200 11.6749
44.4300 15.5947
44.4400 7.5002
44.4500 10.4605
44.4600 9.7146
44.4700 7.6061
44.4800 10.9561
44.4900 9.0486
44.5000 6.3169
44.5100 9.3218
44.5200 10.0577
44.5300 10.8959
44.5400 7.8563
44.5500 8.0702
44.5600 8.7893
44.5700 11.3903
44.5800 9.2782
44.5900 9.6072
44.6000 6.3328
44.6100 12.4427
44.6200 12.6405
44.6300 8.3992
44.6400 7.5264
44.6500 6.9107
44.6600 7.6151
44.6700 10.2474
44.6800 8.5203
44.6900 4.3905
44.7000 11.0459
44.7100 11.6097
44.7200 7.2163
44.7300 6.8645
44.7400 10.8890
44.7500 3.5430
44.7600 10.9305
44.7700 12.1516
44.7800 9.9230
44.7900 12.1399
44.8000 10.0237
44.8100 9.5017
44.8200 9.4533
44.8300 10.0031
44.8400 5.4085
44.8500 9.1901
44.8600 13.4041
44.8700 12.1167
44.8800 10.5649
44.8900 7.5397
44.9000 9.7929
44.9100 14.5892
44.9200 11.5212
44.9300 11.6268
44.9400 14.1679
44.9500 6.4932
44.9600 9.1185
44.9700 8.2571
44.9800 7.9529
44.9900 13.6586
45.0000 8.7054
45.0100 4.9769
45.0200 15.5796
45.0300 15.2426
45.0400 12.1094
45.0500 9.7387
45.0600 8.9103
45.0700 9.5010
45.0800 8.3384
45.0900 7.7590
45.1000 5.2679
45.1100 10.0290
45.1200 15.9017
45.1300 18.8171
45.1400 11.1930
45.1500 19.0235
45.1600 20.2686
45.1700 20.0634
45.1800 18.0772
45.1900 13.1463
45.2000 16.4872
45.2100 17.4049
45.2200 16.4051
45.2300 17.6735
45.2400 17.7126
45.2500 15.4929
45.2600 20.5433
45.2700 14.8477
45.2800 23.6709
45.2900 19.2613
45.3000 24.0136
45.3100 21.3973
45.3200 29.9118
45.3300 25.9077
45.3400 31.3572
45.3500 37.7328
45.3600 41.8345
45.3700 34.9923
45.3800 54.8447
45.3900 68.4403
45.4000 67.1426
45.4100 87.7606
45.4200 115.0370
45.4300 138.3788
45.4400 167.9994
45.4500 203.5515
45.4600 263.5936
45.4700 324.2989
45.4800 400.7686
45.4900 462.6849
45.5000 532.3754
45.5100 600.6551
45.5200 626.5709
45.5300 689.6672
45.5400 667.4911
45.5500 629.1414
45.5600 583.1251
45.5700 515.7609
45.5800 422.8524
45.5900 382.3725
45.6000 305.6172
45.6100 253.4235
45.6200 212.1213
45.6300 149.7746
45.6400 113.2975
45.6500 95.5512
45.6600 73.3718
45.6700 66.6908
45.6800 45.3803
45.6900 32.5151
45.7000 30.6024
45.7100 32.7156
45.7200 32.6812
45.7300 16.6045
45.7400 25.6764
45.7500 24.8304
45.7600 21.7975
45.7700 10.0616
45.7800 21.9028
45.7900 14.6250
45.8000 15.8842
45.8100 9.6256
45.8200 12.7139
45.8300 15.5329
45.8400 14.5037
45.8500 15.5476
45.8600 11.3853
45.8700 20.4866
45.8800 18.9916
45.8900 18.7953
45.9000 10.8202
45.9100 12.4696
45.9200 12.5395
45.9300 11.2309
45.9400 11.1679
45.9500 7.4091
45.9600 11.0528
45.9700 9.9075
45.9800 10.6322
45.9900 7.1575
46.0000 9.9053
46.0100 8.2721
46.0200 6.2343
46.0300 13.3024
46.0400 13.8264
46.0500 10.2269
46.0600 6.7912
46.0700 6.6466
46.0800 7.0748
46.0900 8.3112
46.1000 10.3299
46.1100 3.0807
46.1200 7.5973
46.1300 9.0290
46.1400 8.9395
46.1500 14.4885
46.1600 11.8829
46.1700 9.1575
46.1800 10.7861
46.1900 11.5714
46.2000 17.2093
46.2100 9.4640
46.2200 13.6814
46.2300 11.5296
46.2400 12.8058
46.2500 10.6606
46.2600 12.5796
46.2700 5.8986
46.2800 13.7340
46.2900 11.0942
46.3000 9.4746
46.3100 12.3940
46.3200 6.3765
46.3300 14.0396
46.3400 13.8201
46.3500 7.4304
46.3600 8.4306
46.3700 4.1287
46.3800 5.1511
46.3900 11.1463
46.4000 8.3722
46.4100 9.3398
46.4200 6.5818
46.4300 9.9854
46.4400 7.2073
46.4500 8.4468
46.4600 9.4085
46.4700 11.9214
46.4800 9.6797
46.4900 5.7900
46.5000 7.3494
46.5100 6.2053
46.5200 8.3279
46.5300 7.9340
46.5400 10.2733
46.5500 12.4016
46.5600 14.3847
46.5700 13.3296
46.5800 14.0248
46.5900 9.2708
46.6000 9.4750
46.6100 8.5519
46.6200 14.5710
46.6300 6.5996
46.6400 7.9449
46.6500 7.2253
46.6600 9.8470
46.6700 14.4841
46.6800 9.1437
46.6900 12.0781
46.7000 8.0688
46.7100 13.8902
46.7200 12.7888
46.7300 9.6000
46.7400 15.5344
46.7500 9.3858
46.7600 8.1227
46.7700 7.2050
46.7800 8.8951
46.7900 11.3769
46.8000 7.3310
46.8100 11.4144
46.8200 8.3953
46.8300 9.7129
46.8400 7.1554
46.8500 5.1510
46.8600 11.8256
46.8700 10.0035
46.8800 11.3169
46.8900 6.9856
46.9000 7.7431
46.9100 7.3182
46.9200 10.9470
46.9300 5.6870
46.9400 10.4477
46.9500 13.4711
46.9600 11.3158
46.9700 9.1843
46.9800 5.6341
46.9900 10.8117
47.0000 9.3837
47.0100 12.2472
47.0200 7.0039
47.0300 10.5263
47.0400 10.6387
47.0500 10.2583
47.0600 10.3248
47.0700 10.5529
47.0800 12.0377
47.0900 10.0724
47.1000 10.7908
47.1100 10.1677
47.1200 8.7740
47.1300 7.5086
47.1400 14.2721
47.1500 10.6833
47.1600 16.6572
47.1700 10.5085
47.1800 12.7224
47.1900 11.0692
47.2000 13.5099
47.2100 17.0323
47.2200 23.5729
47.2300 10.7359
47.2400 12.1038
47.2500 11.2527
47.2600 5.7344
47.2700 13.4579
47.2800 8.9493
47.2900 7.9528
47.3000 9.8411
47.3100 8.8300
47.3200 11.4763
47.3300 9.7916
47.3400 6.1209
47.3500 12.4062
47.3600 9.5673
47.3700 7.0831
47.3800 4.6825
47.3900 7.2251
47.4000 8.7950
47.4100 7.0619
47.4200 12.1016
47.4300 8.1551
47.4400 8.0094
47.4500 5.2396
47.4600 8.7090
47.4700 12.8646
47.4800 8.8583
47.4900 11.0658
47.5000 7.1069
47.5100 13.8457
47.5200 8.6410
47.5300 6.2130
47.5400 5.3499
47.5500 7.0551
47.5600 9.3342
47.5700 10.1273
47.5800 7.0818
47.5900 9.4108
47.6000 7.6222
47.6100 4.5360
47.6200 4.8822
47.6300 9.1936
47.6400 5.4206
47.6500 11.2120
47.6600 9.0415
47.6700 3.6164
47.6800 9.9667
47.6900 8.2526
47.7000 7.1187
47.7100 6.6983
47.7200 7.0290
47.7300 10.9855
47.7400 13.0457
47.7500 9.4911
47.7600 6.9852
47.7700 10.1155
47.7800 9.4660
47.7900 9.6035
47.8000 8.6372
47.8100 11.1730
47.8200 9.7663
47.8300 16.0235
47.8400 14.1300
47.8500 5.6568
47.8600 7.7061
47.8700 10.5525
47.8800 11.2738
47.8900 6.9336
47.9000 5.8928
47.9100 7.4281
47.9200 14.5913
47.9300 9.8683
47.9400 8.9286
47.9500 18.2127
47.9600 7.6756
47.9700 10.0838
47.9800 10.5794
47.9900 12.4654
48.0000 8.4361
48.0100 9.7550
48.0200 4.3604
48.0300 9.1231
48.0400 8.6586
48.0500 9.6392
48.0600 4.5629
48.0700 5.7962
48.0800 8.1978
48.0900 9.4135
48.1000 7.4188
48.1100 4.6202
48.1200 12.8402
48.1300 13.0180
48.1400 9.2704
48.1500 7.5350
48.1600 7.0493
48.1700 9.5854
48.1800 11.1876
48.1900 4.3139
48.2000 6.9998
48.2100 6.3550
48.2200 10.2977
48.2300 10.9540
48.2400 9.0185
48.2500 7.6628
48.2600 8.8278
48.2700 13.4712
48.2800 9.0772
48.2900 11.9527
48.3000 4.9539
48.3100 8.7143
48.3200 2.0634
48.3300 1.7089
48.3400 8.1191
48.3500 8.2751
48.3600 5.6448
48.3700 6.5357
48.3800 9.7370
48.3900 5.4848
48.4000 7.9877
48.4100 10.4014
48.4200 9.6031
48.4300 13.9640
48.4400 5.0333
48.4500 9.0511
48.4600 8.7719
48.4700 7.5514
48.4800 7.9929
48.4900 7.7857
48.5000 9.5895
48.5100 7.4793
48.5200 8.6187
48.5300 8.3467
48.5400 4.0381
48.5500 8.5663
48.5600 6.3366
48.5700 7.2210
48.5800 4.5973
48.5900 4.7464
48.6000 11.1573
48.6100 10.2555
48.6200 15.2412
48.6300 6.6074
48.6400 6.6043
48.6500 6.2345
48.6600 12.8573
48.6700 12.6777
48.6800 9.7714
48.6900 8.0636
48.7000 3.4086
48.7100 9.2155
48.7200 10.2966
48.7300 14.3254
48.7400 7.5221
48.7500 8.6214
48.7600 8.7819
48.7700 7.7516
48.7800 11.2610
48.7900 9.5368
48.8000 11.5664
48.8100 11.7443
48.8200 6.4582
48.8300 9.7689
48.8400 11.6840
48.8500 6.2393
48.8600 6.8139
48.8700 8.6256
48.8800 4.9629
48.8900 11.2781
48.9000 10.4525
48.9100 8.1851
48.9200 5.7208
48.9300 6.5203
48.9400 7.2342
48.9500 8.4845
48.9600 5.3363
48.9700 8.4119
48.9800 9.4339
48.9900 11.4255
49.0000 6.2550
49.0100 6.3442
49.0200 9.1800
49.0300 11.0467
49.0400 7.6079
49.0500 8.3862
49.0600 6.7143
49.0700 6.4480
49.0800 8.6327
49.0900 11.2975
49.1000 8.9646
49.1100 7.1837
49.1200 7.3076
49.1300 8.4572
49.1400 8.4276
49.1500 8.9657
49.1600 9.8507
49.1700 8.4735
49.1800 6.9576
49.1900 4.9113
49.2000 5.6219
49.2100 10.0743
49.2200 7.6535
49.2300 6.9134
49.2400 5.5939
49.2500 9.0380
49.2600 11.2388
49.2700 8.5222
49.2800 14.5211
49.2900 5.9646
49.3000 11.8437
49.3100 15.1102
49.3200 12.5250
49.3300 17.5253
49.3400 10.6670
49.3500 17.6648
49.3600 13.3845
49.3700 14.9554
49.3800 15.7629
49.3900 14.7372
49.4000 6.9994
49.4100 7.2334
49.4200 11.7396
49.4300 7.3205
49.4400 7.5676
49.4500 8.7475
49.4600 5.1702
49.4700 5.6099
49.4800 5.4471
49.4900 3.4952
49.5000 5.3008
49.5100 7.8124
49.5200 5.8629
49.5300 9.2666
49.5400 7.3692
49.5500 4.0254
49.5600 7.6909
49.5700 7.2103
49.5800 3.3028
49.5900 7.3986
49.6000 8.5601
49.6100 11.8238
49.6200 10.5660
49.6300 9.6521
49.6400 8.0790
49.6500 5.8629
49.6600 7.8934
49.6700 6.0130
49.6800 13.9854
49.6900 6.9519
49.7000 14.9919
49.7100 5.0541
49.7200 7.1694
49.7300 11.6953
49.7400 13.2097
49.7500 8.7205
49.7600 2.8011
49.7700 3.1698
49.7800 12.3053
49.7900 10.4635
49.8000 8.2719
49.8100 10.8141
49.8200 10.1055
49.8300 7.8725
49.8400 12.9078
49.8500 12.3030
49.8600 10.0778
49.8700 6.7441
49.8800 8.3003
49.8900 11.4582
49.9000 6.5766
49.9100 3.3476
49.9200 6.1606
49.9300 10.7864
49.9400 4.6361
49.9500 9.0377
49.9600 9.3716
49.9700 6.5728
49.9800 9.8333
49.9900 2.8295
50.0000 11.3538
50.0100 8.5815
50.0200 15.1882
50.0300 8.5910
50.0400 8.9371
50.0500 8.8337
50.0600 10.3792
50.0700 10.1101
50.0800 7.6982
50.0900 11.1253
50.1000 15.1736
50.1100 12.6991
50.1200 7.3361
50.1300 7.2624
50.1400 5.3510
50.1500 13.1123
50.1600 12.5822
50.1700 10.9922
50.1800 4.8927
50.1900 11.0858
50.2000 11.1564
50.2100 8.7677
50.2200 11.7857
50.2300 9.0080
50.2400 5.2384
50.2500 9.6697
50.2600 7.7090
50.2700 13.1203
50.2800 13.7682
50.2900 6.9039
50.3000 11.9517
50.3100 6.5242
50.3200 7.0308
50.3300 5.4280
50.3400 12.0394
50.3500 4.2744
50.3600 10.5780
50.3700 10.9688
50.3800 7.8517
50.3900 8.0158
50.4000 6.1678
50.4100 6.8427
50.4200 11.1782
50.4300 7.4829
50.4400 12.4717
50.4500 8.1101
50.4600 7.4815
50.4700 6.4571
50.4800 8.1825
50.4900 13.1216
50.5000 10.2458
50.5100 8.3595
50.5200 5.1555
50.5300 7.6519
50.5400 14.5712
50.5500 10.8057
50.5600 12.9672
50.5700 13.0601
50.5800 6.8044
50.5900 18.3250
50.6000 9.7484
50.6100 14.8761
50.6200 9.8383
50.6300 8.2633
50.6400 10.3426
50.6500 7.2687
50.6600 7.3687
50.6700 10.6900
50.6800 10.3525
50.6900 10.0504
50.7000 7.4633
50.7100 10.0257
50.7200 14.4301
50.7300 10.3639
50.7400 9.9132
50.7500 15.2101
50.7600 10.3297
50.7700 9.5524
50.7800 13.2940
50.7900 7.1320
50.8000 8.0001
50.8100 10.2142
50.8200 9.2363
50.8300 10.0841
50.8400 8.5219
50.8500 6.2520
50.8600 9.2313
50.8700 10.3007
50.8800 11.8592
50.8900 7.2198
50.9000 7.6579
50.9100 9.5865
50.9200 16.7216
50.9300 13.5926
50.9400 8.3541
50.9500 8.9075
50.9600 14.9850
50.9700 10.7793
50.9800 14.2106
50.9900 9.9172
51.0000 9.4494
51.0100 9.4362
51.0200 9.2500
51.0300 8.3544
51.0400 4.7029
51.0500 8.3759
51.0600 6.7077
51.0700 9.3680
51.0800 13.3253
51.0900 6.3077
51.1000 9.9054
51.1100 5.1855
51.1200 10.3630
51.1300 7.3868
51.1400 10.0548
51.1500 14.6051
51.1600 7.9095
51.1700 5.7056
51.1800 7.3449
51.1900 6.5448
51.2000 5.4280
51.2100 7.1036
51.2200 9.2348
51.2300 9.2739
51.2400 5.3883
51.2500 2.7637
51.2600 7.1825
51.2700 9.4380
51.2800 7.3492
51.2900 10.8055
51.3000 5.7244
51.3100 5.3261
51.3200 5.7262
51.3300 6.3583
51.3400 4.7739
51.3500 3.7393
51.3600 7.9251
51.3700 9.5533
51.3800 8.5187
51.3900 7.3458
51.4000 8.8739
51.4100 8.1392
51.4200 5.0048
51.4300 8.0934
51.4400 8.9416
51.4500 8.5498
51.4600 9.3166
51.4700 4.8955
51.4800 4.6461
51.4900 6.2950
51.5000 9.0853
51.5100 6.0530
51.5200 8.3093
51.5300 7.7172
51.5400 7.6338
51.5500 13.6682
51.5600 11.0855
51.5700 6.0469
51.5800 10.9632
51.5900 10.8575
51.6000 11.5645
51.6100 11.7002
51.6200 12.2616
51.6300 10.8624
51.6400 6.2145
51.6500 11.1763
51.6600 6.3869
51.6700 10.9043
51.6800 8.8406
51.6900 9.7098
51.7000 6.2433
51.7100 5.8351
51.7200 11.7062
51.7300 9.2399
51.7400 17.4725
51.7500 16.0744
51.7600 15.2144
51.7700 13.7496
51.7800 10.3617
51.7900 11.2495
51.8000 12.8766
51.8100 14.3359
51.8200 3.2719
51.8300 6.1956
51.8400 10.4045
51.8500 7.9313
51.8600 7.3368
51.8700 7.7423
51.8800 8.2902
51.8900 8.2626
51.9000 9.6117
51.9100 6.1751
51.9200 5.4453
51.9300 7.1035
51.9400 7.6760
51.9500 11.8208
51.9600 16.0630
51.9700 12.0821
51.9800 14.2472
51.9900 10.8927
52.0000 12.7365
52.0100 8.7347
52.0200 12.1883
52.0300 6.2357
52.0400 7.8184
52.0500 9.7788
52.0600 12.4713
52.0700 9.0803
52.0800 10.8863
52.0900 4.7706
52.1000 5.5346
52.1100 7.2593
52.1200 6.2048
52.1300 8.3660
52.1400 8.4820
52.1500 7.8708
52.1600 12.4594
52.1700 8.7570
52.1800 7.4977
52.1900 11.9759
52.2000 8.6313
52.2100 12.9296
52.2200 9.1698
52.2300 10.8559
52.2400 9.9726
52.2500 12.1137
52.2600 7.4961
52.2700 9.9304
52.2800 7.7641
52.2900 8.2061
52.3000 12.8690
52.3100 13.7613
52.3200 10.8379
52.3300 10.4273
52.3400 9.0797
52.3500 8.7837
52.3600 10.0771
52.3700 8.6359
52.3800 9.2595
52.3900 9.5962
52.4000 12.7352
52.4100 7.6830
52.4200 3.5758
52.4300 11.5160
52.4400 6.9984
52.4500 7.7983
52.4600 11.5513
52.4700 8.5955
52.4800 10.6745
52.4900 7.9715
52.5000 6.3865
52.5100 14.2341
52.5200 9.4645
52.5300 11.9656
52.5400 8.4244
52.5500 12.8053
52.5600 9.1066
52.5700 14.9019
52.5800 7.8019
52.5900 15.9826
52.6000 10.1753
52.6100 15.8363
52.6200 7.8789
52.6300 9.7398
52.6400 9.8004
52.6500 12.5126
52.6600 17.0921
52.6700 5.2695
52.6800 5.1056
52.6900 6.2833
52.7000 7.4773
52.7100 6.3660
52.7200 11.8337
52.7300 4.0754
52.7400 7.1551
52.7500 9.4418
52.7600 8.3123
52.7700 5.0103
52.7800 12.4571
52.7900 7.9912
52.8000 4.0524
52.8100 6.8331
52.8200 4.2375
52.8300 5.4352
52.8400 10.1395
52.8500 9.0152
52.8600 9.8884
52.8700 2.6353
52.8800 7.1432
52.8900 6.5127
52.9000 8.8266
52.9100 8.5687
52.9200 6.4231
52.9300 10.3664
52.9400 10.6343
52.9500 13.8111
52.9600 8.7662
52.9700 8.3490
52.9800 11.3413
52.9900 5.8722
53.0000 6.3680
53.0100 9.7421
53.0200 10.2049
53.0300 4.0632
53.0400 7.4805
53.0500 12.2030
53.0600 11.1005
53.0700 8.6685
53.0800 6.0652
53.0900 6.0639
53.1000 13.6450
53.1100 9.8027
53.1200 9.7888
53.1300 14.2025
53.1400 17.0138
53.1500 7.9434
53.1600 7.3389
53.1700 10.5934
53.1800 9.2425
53.1900 3.0317
53.2000 6.0793
53.2100 1.6779
53.2200 11.9942
53.2300 9.7490
53.2400 14.0702
53.2500 9.0000
53.2600 12.7116
53.2700 8.5129
53.2800 8.1314
53.2900 7.9908
53.3000 12.0458
53.3100 5.5616
53.3200 6.8430
53.3300 8.5252
53.3400 10.2395
53.3500 5.8699
53.3600 10.8065
53.3700 10.7615
53.3800 10.7305
53.3900 12.3791
53.4000 11.3390
53.4100 9.2808
53.4200 8.5015
53.4300 11.4454
53.4400 4.9729
53.4500 10.7104
53.4600 11.1068
53.4700 8.0170
53.4800 9.6982
53.4900 7.8812
53.5000 6.9855
53.5100 8.4031
53.5200 18.8414
53.5300 11.5122
53.5400 11.4275
53.5500 11.5079
53.5600 9.3642
53.5700 13.6182
53.5800 11.1968
53.5900 8.3927
53.6000 6.9616
53.6100 15.2082
53.6200 14.6955
53.6300 5.9809
53.6400 8.1916
53.6500 7.6450
53.6600 7.7300
53.6700 8.5747
53.6800 11.1307
53.6900 9.5443
53.7000 8.0942
53.7100 12.6741
53.7200 12.8693
53.7300 16.9159
53.7400 10.5488
53.7500 14.2470
53.7600 9.3330
53.7700 7.0652
53.7800 8.2444
53.7900 7.8876
53.8000 12.3775
53.8100 11.9037
53.8200 8.4560
53.8300 5.7754
53.8400 7.6464
53.8500 9.9175
53.8600 9.1552
53.8700 8.1213
53.8800 5.8285
53.8900 5.2034
53.9000 5.1824
53.9100 4.0474
53.9200 6.3164
53.9300 6.1816
53.9400 7.5315
53.9500 9.0868
53.9600 10.1493
53.9700 5.8941
53.9800 10.1555
53.9900 11.0029
54.0000 11.8632
54.0100 12.7294
54.0200 4.9905
54.0300 5.4720
54.0400 6.3008
54.0500 5.0555
54.0600 3.1700
54.0700 8.2301
54.0800 5.1759
54.0900 3.0049
54.1000 5.4861
54.1100 11.5896
54.1200 8.2251
54.1300 7.1233
54.1400 7.2482
54.1500 8.0257
54.1600 4.1366
54.1700 11.3082
54.1800 4.1808
54.1900 7.9088
54.2000 4.7969
54.2100 10.4457
54.2200 7.3382
54.2300 7.4898
54.2400 8.2453
54.2500 9.8267
54.2600 6.9520
54.2700 7.3628
54.2800 5.3304
54.2900 6.2712
54.3000 7.2619
54.3100 11.6500
54.3200 8.3853
54.3300 5.6322
54.3400 8.0247
54.3500 6.0517
54.3600 6.7973
54.3700 14.5202
54.3800 9.3411
54.3900 7.5019
54.4000 9.0630
54.4100 4.8904
54.4200 12.5111
54.4300 10.7582
54.4400 6.4542
54.4500 6.9881
54.4600 8.2573
54.4700 9.6861
54.4800 5.3982
54.4900 8.4142
54.5000 5.8635
54.5100 9.1433
54.5200 9.2693
54.5300 13.6207
54.5400 8.9219
54.5500 12.8792
54.5600 7.7577
54.5700 14.1384
54.5800 6.9986
54.5900 6.7592
54.6000 14.5045
54.6100 10.3706
54.6200 9.3231
54.6300 7.4602
54.6400 9.4175
54.6500 7.1826
54.6600 9.8029
54.6700 15.6016
54.6800 13.2756
54.6900 3.6796
54.7000 11.4075
54.7100 9.3549
54.7200 5.5359
54.7300 11.2063
54.7400 8.3662
54.7500 6.0835
54.7600 7.1452
54.7700 4.4526
54.7800 10.3317
54.7900 10.9841
54.8000 7.5025
54.8100 10.1572
54.8200 10.8500
54.8300 9.6497
54.8400 10.0698
54.8500 11.1882
54.8600 12.0466
54.8700 12.8133
54.8800 8.8673
54.8900 5.1010
54.9000 4.7676
54.9100 12.8500
54.9200 10.3338
54.9300 10.7063
54.9400 5.8100
54.9500 5.4631
54.9600 2.0901
54.9700 8.8014
54.9800 10.6343
54.9900 11.0150
55.0000 6.3858
55.0100 11.9524
55.0200 10.4865
55.0300 10.4918
55.0400 9.3760
55.0500 10.1851
55.0600 5.1535
55.0700 2.5908
55.0800 8.8497
55.0900 11.1113
55.1000 11.2843
55.1100 5.7881
55.1200 13.3856
55.1300 10.2246
55.1400 13.8994
55.1500 6.3529
55.1600 14.7331
55.1700 8.1304
55.1800 6.7435
55.1900 6.3822
55.2000 9.1711
55.2100 12.1619
55.2200 6.7412
55.2300 7.0960
55.2400 2.5559
55.2500 9.3763
55.2600 12.3044
55.2700 10.2360
55.2800 7.5250
55.2900 12.1340
55.3000 5.7204
55.3100 10.0809
55.3200 7.5558
55.3300 14.5118
55.3400 4.5199
55.3500 7.6964
55.3600 4.9577
55.3700 7.1821
55.3800 5.5958
55.3900 11.1310
55.4000 8.7123
55.4100 6.6900
55.4200 9.7659
55.4300 8.5535
55.4400 5.0879
55.4500 7.7765
55.4600 11.1581
55.4700 9.5396
55.4800 7.9816
55.4900 6.8734
55.5000 6.7694
55.5100 3.9334
55.5200 6.5975
55.5300 12.1949
55.5400 7.6592
55.5500 11.9203
55.5600 11.6147
55.5700 14.8360
55.5800 8.2919
55.5900 10.5021
55.6000 6.1700
55.6100 12.1414
55.6200 9.8826
55.6300 15.9833
55.6400 10.0365
55.6500 12.9632
55.6600 13.5125
55.6700 6.5832
55.6800 11.2652
55.6900 7.0393
55.7000 5.5843
55.7100 9.0460
55.7200 8.0378
55.7300 6.3802
55.7400 6.2961
55.7500 9.6862
55.7600 9.7173
55.7700 10.4708
55.7800 9.5293
55.7900 7.9376
55.8000 7.7918
55.8100 11.4457
55.8200 7.4758
55.8300 4.3877
55.8400 10.2165
55.8500 9.2683
55.8600 8.3755
55.8700 11.3972
55.8800 9.7066
55.8900 12.0044
55.9000 9.1397
55.9100 9.2821
55.9200 9.2353
55.9300 11.5073
55.9400 11.3621
55.9500 11.6872
55.9600 10.2055
55.9700 7.9819
55.9800 6.7960
55.9900 12.8343
56.0000 10.5703
56.0100 7.6428
56.0200 8.6194
56.0300 5.4160
56.0400 6.2816
56.0500 8.3329
56.0600 4.6946
56.0700 8.2917
56.0800 8.4322
56.0900 4.7137
56.1000 4.4007
56.1100 5.5926
56.1200 7.9958
56.1300 8.2005
56.1400 8.5428
56.1500 12.1421
56.1600 5.2867
56.1700 14.0180
56.1800 13.5259
56.1900 12.1491
56.2000 9.6405
56.2100 9.5779
56.2200 10.1547
56.2300 10.6655
56.2400 6.4184
56.2500 8.9616
56.2600 8.2542
56.2700 7.9875
56.2800 8.8422
56.2900 8.1941
56.3000 12.1899
56.3100 10.6917
56.3200 9.3087
56.3300 10.2302
56.3400 6.7132
56.3500 6.5876
56.3600 10.0745
56.3700 14.2886
56.3800 7.1340
56.3900 9.8519
56.4000 8.4698
56.4100 12.4778
56.4200 7.3515
56.4300 7.4475
56.4400 5.0325
56.4500 10.9416
56.4600 8.7579
56.4700 7.3473
56.4800 8.9505
56.4900 9.9097
56.5000 7.0933
56.5100 12.5916
56.5200 9.6387
56.5300 9.7142
56.5400 9.2469
56.5500 7.0720
56.5600 3.3819
56.5700 0.9239
56.5800 3.6109
56.5900 12.3364
56.6000 9.6693
56.6100 9.4911
56.6200 8.9375
56.6300 5.7449
56.6400 7.6338
56.6500 8.5327
56.6600 8.0354
56.6700 7.8833
56.6800 6.3425
56.6900 11.4388
56.7000 11.2207
56.7100 8.5278
56.7200 11.8866
56.7300 7.2699
56.7400 10.3272
56.7500 8.8977
56.7600 10.5165
56.7700 11.4894
56.7800 10.0295
56.7900 6.6442
56.8000 8.2283
56.8100 10.4247
56.8200 5.2353
56.8300 6.2119
56.8400 3.2408
56.8500 7.1814
56.8600 7.1500
56.8700 5.3252
56.8800 5.9326
56.8900 6.4063
56.9000 10.1853
56.9100 14.7595
56.9200 10.8853
56.9300 10.4786
56.9400 8.3817
56.9500 6.1099
56.9600 5.3942
56.9700 4.3483
56.9800 5.2906
56.9900 12.7628
57.0000 7.3221
57.0100 8.1738
57.0200 6.3358
57.0300 9.3749
57.0400 10.2691
57.0500 8.0100
57.0600 9.9070
57.0700 7.7459
57.0800 3.7751
57.0900 15.3229
57.1000 14.9366
57.1100 9.4999
57.1200 11.8736
57.1300 7.9692
57.1400 9.8519
57.1500 7.5101
57.1600 10.9960
57.1700 8.3124
57.1800 10.1475
57.1900 9.5395
57.2000 11.2206
57.2100 11.0588
57.2200 3.4431
57.2300 4.0015
57.2400 8.4823
57.2500 8.4031
57.2600 7.1882
57.2700 6.3354
57.2800 8.0870
57.2900 9.5014
57.3000 10.1575
57.3100 8.3045
57.3200 8.4512
57.3300 10.2595
57.3400 9.9849
57.3500 5.0176
57.3600 7.3006
57.3700 5.8465
57.3800 5.8006
57.3900 13.0648
57.4000 11.6642
57.4100 11.4217
57.4200 6.9239
57.4300 9.0431
57.4400 9.7550
57.4500 7.5250
57.4600 8.2867
57.4700 6.7790
57.4800 7.4179
57.4900 8.5628
57.5000 13.0739
57.5100 11.7678
57.5200 8.8558
57.5300 8.1361
57.5400 6.5272
57.5500 6.0755
57.5600 10.1896
57.5700 3.6289
57.5800 12.6766
57.5900 12.0518
57.6000 15.5449
57.6100 7.6147
57.6200 17.1783
57.6300 7.5638
57.6400 10.5175
57.6500 10.7183
57.6600 5.4830
57.6700 3.9393
57.6800 5.0714
57.6900 5.2252
57.7000 4.6494
57.7100 3.5115
57.7200 2.6177
57.7300 8.0733
57.7400 7.2167
57.7500 4.9619
57.7600 5.4229
57.7700 8.1556
57.7800 5.4347
57.7900 2.8728
57.8000 11.7519
57.8100 7.6180
57.8200 11.9486
57.8300 8.5157
57.8400 10.8046
57.8500 16.0910
57.8600 2.1626
57.8700 15.9207
57.8800 10.5752
57.8900 14.3695
57.9000 8.1891
57.9100 9.8945
57.9200 6.9582
57.9300 11.4900
57.9400 8.5696
57.9500 12.5550
57.9600 12.2776
57.9700 21.6722
57.9800 9.6515
57.9900 12.0648
58.0000 6.9429
58.0100 9.6347
58.0200 5.0873
58.0300 8.8711
58.0400 5.3376
58.0500 21.3685
58.0600 5.0462
58.0700 11.6198
58.0800 5.0837
58.0900 15.5659
58.1000 5.7507
58.1100 12.9081
58.1200 6.5040
58.1300 11.9990
58.1400 6.2474
58.1500 8.8141
58.1600 6.5500
58.1700 12.4053
58.1800 8.4788
58.1900 2.4780
58.2000 8.3239
58.2100 3.1278
58.2200 9.9516
58.2300 4.8885
58.2400 7.3989
58.2500 8.3993
58.2600 9.5612
58.2700 9.0576
58.2800 6.8003
58.2900 12.4231
58.3000 7.6301
58.3100 8.8008
58.3200 8.0632
58.3300 12.0577
58.3400 7.2211
58.3500 11.5820
58.3600 8.3969
58.3700 14.2658
58.3800 10.5892
58.3900 4.1164
58.4000 10.7166
58.4100 7.0632
58.4200 6.1481
58.4300 8.6398
58.4400 8.6698
58.4500 9.3943
58.4600 3.1296
58.4700 5.9094
58.4800 9.0881
58.4900 9.0134
58.5000 2.9019
58.5100 12.0432
58.5200 11.1816
58.5300 4.8888
58.5400 6.0835
58.5500 6.6075
58.5600 6.9135
58.5700 11.7471
58.5800 4.1897
58.5900 7.9364
58.6000 6.2446
58.6100 6.4281
58.6200 8.7983
58.6300 6.8509
58.6400 9.3682
58.6500 19.6870
58.6600 13.0380
58.6700 9.7555
58.6800 10.2075
58.6900 14.4634
58.7000 8.5499
58.7100 12.1088
58.7200 9.6856
58.7300 13.5870
58.7400 5.5350
58.7500 10.5328
58.7600 8.3547
58.7700 6.0181
58.7800 5.5834
58.7900 12.3269
58.8000 10.3804
58.8100 8.9540
58.8200 6.0904
58.8300 8.0259
58.8400 9.1126
58.8500 9.3489
58.8600 10.5206
58.8700 8.4965
58.8800 6.9952
58.8900 6.3308
58.9000 9.8168
58.9100 3.6274
58.9200 9.5675
58.9300 3.0720
58.9400 3.7527
58.9500 4.4358
58.9600 6.8781
58.9700 4.3724
58.9800 8.5527
58.9900 7.0147
59.0000 6.4471
59.0100 6.5339
59.0200 10.4419
59.0300 6.7520
59.0400 5.9463
59.0500 7.3690
59.0600 7.4568
59.0700 5.2790
59.0800 12.7249
59.0900 9.8104
59.1000 8.9746
59.1100 3.5119
59.1200 4.4078
59.1300 4.6238
59.1400 8.1085
59.1500 8.5991
59.1600 6.2131
59.1700 5.4004
59.1800 2.7079
59.1900 10.1555
59.2000 9.0840
59.2100 1.9252
59.2200 6.0860
59.2300 10.6521
59.2400 10.5566
59.2500 4.8074
59.2600 9.1648
59.2700 8.4106
59.2800 10.8627
59.2900 12.7879
59.3000 10.0678
59.3100 10.5141
59.3200 7.0389
59.3300 18.4853
59.3400 3.8963
59.3500 7.2374
59.3600 14.0698
59.3700 9.5089
59.3800 6.0816
59.3900 9.7986
59.4000 8.2564
59.4100 6.3196
59.4200 5.6628
59.4300 9.4600
59.4400 7.6384
59.4500 11.0741
59.4600 7.3355
59.4700 10.3240
59.4800 10.8681
59.4900 11.5406
59.5000 11.8198
59.5100 12.4175
59.5200 7.5563
59.5300 10.9203
59.5400 6.5715
59.5500 9.7908
59.5600 5.9182
59.5700 10.0882
59.5800 7.7703
59.5900 9.8879
59.6000 7.2647
59.6100 8.1757
59.6200 9.3764
59.6300 2.6640
59.6400 7.0733
59.6500 8.9174
59.6600 7.5803
59.6700 6.8339
59.6800 4.3562
59.6900 3.4876
59.7000 3.5697
59.7100 6.3587
59.7200 8.3776
59.7300 7.4901
59.7400 7.8421
59.7500 13.2281
59.7600 7.5664
59.7700 4.8103
59.7800 6.8188
59.7900 7.3194
59.8000 14.5969
59.8100 8.3233
59.8200 8.9560
59.8300 5.9720
59.8400 11.1224
59.8500 7.8320
59.8600 14.7714
59.8700 3.2306
59.8800 6.5578
59.8900 5.2050
59.9000 6.4343
59.9100 6.5756
59.9200 9.5565
59.9300 5.3755
59.9400 9.0467
59.9500 14.3721
59.9600 13.5070
59.9700 14.4190
59.9800 14.6502
59.9900 8.9746
60.0000 10.4603
60.0100 8.0961
60.0200 11.9512
60.0300 10.6154
60.0400 11.4380
60.0500 5.9478
60.0600 8.3720
60.0700 6.3628
60.0800 12.7166
60.0900 9.6643
60.1000 5.5462
60.1100 7.1424
60.1200 3.3860
60.1300 3.0663
60.1400 11.5973
60.1500 3.5051
60.1600 11.7602
60.1700 10.2577
60.1800 9.3719
60.1900 12.5154
60.2000 9.5090
60.2100 9.1101
60.2200 8.1963
60.2300 9.0640
60.2400 6.0886
60.2500 8.5401
60.2600 3.1657
60.2700 11.7503
60.2800 1.8218
60.2900 8.0139
60.3000 6.9470
60.3100 5.9288
60.3200 8.6123
60.3300 8.6356
60.3400 6.2022
60.3500 7.5446
60.3600 6.6682
60.3700 12.3167
60.3800 7.6860
60.3900 11.2522
60.4000 5.6243
60.4100 9.9489
60.4200 8.1538
60.4300 7.8269
60.4400 5.6659
60.4500 12.3683
60.4600 9.2342
60.4700 4.4153
60.4800 13.9899
60.4900 3.2308
60.5000 10.0305
60.5100 10.3994
60.5200 8.3515
60.5300 6.4359
60.5400 10.3144
60.5500 6.8845
60.5600 8.9990
60.5700 10.7523
60.5800 14.0892
60.5900 5.0823
60.6000 11.3581
60.6100 7.5244
60.6200 8.9073
60.6300 8.6931
60.6400 6.7166
60.6500 9.1969
60.6600 8.9778
60.6700 11.8290
60.6800 9.0008
60.6900 10.1478
60.7000 12.0877
60.7100 14.4796
60.7200 6.7356
60.7300 11.9255
60.7400 13.0273
60.7500 11.1517
60.7600 6.7786
60.7700 10.8844
60.7800 10.3608
60.7900 5.8247
60.8000 8.5350
60.8100 6.4807
60.8200 6.8377
60.8300 14.9392
60.8400 8.6600
60.8500 5.4496
60.8600 9.6526
60.8700 6.4210
60.8800 6.7193
60.8900 10.4298
60.9000 5.1257
60.9100 7.7446
60.9200 2.8757
60.9300 7.4911
60.9400 8.2594
60.9500 9.5900
60.9600 12.4109
60.9700 7.7587
60.9800 6.4017
60.9900 9.3037
61.0000 7.0555
61.0100 4.5239
61.0200 9.1907
61.0300 4.4835
61.0400 15.0099
61.0500 15.5305
61.0600 9.5771
61.0700 6.8264
61.0800 7.9559
61.0900 9.1770
61.1000 10.6546
61.1100 10.3277
61.1200 7.1193
61.1300 13.1400
61.1400 7.0765
61.1500 5.3470
61.1600 4.9369
61.1700 6.4788
61.1800 8.3194
61.1900 7.3473
61.2000 10.7422
61.2100 9.7003
61.2200 6.6521
61.2300 10.1262
61.2400 11.5995
61.2500 13.2155
61.2600 4.8912
61.2700 7.8184
61.2800 8.6992
61.2900 11.5143
61.3000 10.3461
61.3100 9.6469
61.3200 7.8705
61.3300 4.5576
61.3400 3.1799
61.3500 6.2362
61.3600 10.4927
61.3700 9.7377
61.3800 7.3489
61.3900 8.4649
61.4000 8.3278
61.4100 4.7865
61.4200 8.5212
61.4300 11.5852
61.4400 7.8781
61.4500 5.1767
61.4600 8.1786
61.4700 4.7471
61.4800 8.2163
61.4900 8.1786
61.5000 6.1243
61.5100 4.2543
61.5200 9.2451
61.5300 10.8751
61.5400 9.7301
61.5500 6.3999
61.5600 6.1379
61.5700 8.7641
61.5800 5.1590
61.5900 7.7625
61.6000 12.8254
61.6100 8.8251
61.6200 7.6614
61.6300 13.5527
61.6400 9.0446
61.6500 8.9429
61.6600 6.3774
61.6700 11.6612
61.6800 7.7998
61.6900 7.4699
61.7000 6.6502
61.7100 8.6610
61.7200 8.6154
61.7300 6.6951
61.7400 7.3953
61.7500 6.4192
61.7600 9.9868
61.7700 6.2480
61.7800 5.3525
61.7900 8.4644
61.8000 6.9707
61.8100 9.8704
61.8200 7.4427
61.8300 4.6046
61.8400 7.4638
61.8500 17.2016
61.8600 3.7489
61.8700 8.1883
61.8800 12.3029
61.8900 10.7999
61.9000 9.1897
61.9100 7.9147
61.9200 10.3917
61.9300 15.9105
61.9400 7.9622
61.9500 8.2901
61.9600 8.7792
61.9700 7.6012
61.9800 6.1027
61.9900 8.7664
62.0000 7.8702
62.0100 4.8812
62.0200 14.3517
62.0300 8.3270
62.0400 10.2725
62.0500 8.8350
62.0600 3.8573
62.0700 6.3962
62.0800 6.0564
62.0900 6.3802
62.1000 7.8994
62.1100 8.5688
62.1200 15.1242
62.1300 9.1109
62.1400 15.6897
62.1500 8.3431
62.1600 9.8084
62.1700 6.4637
62.1800 9.6420
62.1900 4.2483
62.2000 8.4471
62.2100 6.9529
62.2200 5.2727
62.2300 6.8413
62.2400 10.4269
62.2500 9.7647
62.2600 15.7979
62.2700 3.4520
62.2800 4.5242
62.2900 9.0243
62.3000 4.2846
62.3100 7.1780
62.3200 4.6281
62.3300 4.3727
62.3400 7.2477
62.3500 4.3470
62.3600 7.4468
62.3700 6.1055
62.3800 8.3492
62.3900 7.9949
62.4000 8.1895
62.4100 7.3568
62.4200 9.9918
62.4300 8.8659
62.4400 8.4372
62.4500 4.7510
62.4600 2.2407
62.4700 6.2161
62.4800 5.4025
62.4900 9.6285
62.5000 11.6560
62.5100 2.4387
62.5200 10.1993
62.5300 9.8770
62.5400 10.9389
62.5500 8.0541
62.5600 8.4776
62.5700 6.0288
62.5800 6.4220
62.5900 4.7229
62.6000 8.8835
62.6100 5.5960
62.6200 8.5269
62.6300 6.3407
62.6400 7.2635
62.6500 6.5527
62.6600 7.4377
62.6700 8.5211
62.6800 6.6212
62.6900 9.6687
62.7000 11.2548
62.7100 4.3036
62.7200 15.3013
62.7300 6.7939
62.7400 7.9239
62.7500 9.5006
62.7600 4.3467
62.7700 10.9507
62.7800 12.8872
62.7900 5.8187
62.8000 10.2204
62.8100 9.6612
62.8200 5.3162
62.8300 11.1087
62.8400 6.6750
62.8500 11.1630
62.8600 11.4054
62.8700 10.8713
62.8800 3.7585
62.8900 7.7073
62.9000 6.5203
62.9100 6.4686
62.9200 7.2784
62.9300 5.2627
62.9400 9.8189
62.9500 5.9242
62.9600 7.4669
62.9700 8.7140
62.9800 4.5906
62.9900 5.4136
63.0000 6.1495
63.0100 4.6859
63.0200 10.3877
63.0300 6.8813
63.0400 6.0817
63.0500 7.0603
63.0600 7.9921
63.0700 5.7591
63.0800 9.4386
63.0900 7.6180
63.1000 6.5042
63.1100 4.5505
63.1200 9.9984
63.1300 5.5497
63.1400 10.0421
63.1500 4.5626
63.1600 6.1771
63.1700 4.3933
63.1800 7.8411
63.1900 3.7317
63.2000 6.7575
63.2100 10.2267
63.2200 8.9751
63.2300 11.3047
63.2400 5.0962
63.2500 11.5119
63.2600 5.6743
63.2700 7.9099
63.2800 4.4840
63.2900 13.0472
63.3000 7.6965
63.3100 4.3331
63.3200 8.7784
63.3300 7.8353
63.3400 11.4883
63.3500 7.7440
63.3600 5.1725
63.3700 5.1512
63.3800 5.4482
63.3900 4.2491
63.4000 9.2282
63.4100 7.0797
63.4200 7.4243
63.4300 10.4069
63.4400 9.2864
63.4500 11.9544
63.4600 6.5041
63.4700 7.3132
63.4800 6.0967
63.4900 8.4997
63.5000 7.2758
63.5100 12.1836
63.5200 6.2737
63.5300 7.4499
63.5400 6.3507
63.5500 6.9792
63.5600 8.6008
63.5700 8.1694
63.5800 3.4539
63.5900 6.3009
63.6000 7.4454
63.6100 8.4028
63.6200 7.5999
63.6300 5.1405
63.6400 11.3967
63.6500 9.5336
63.6600 13.5574
63.6700 8.5925
63.6800 0.4919
63.6900 6.9580
63.7000 7.3904
63.7100 6.6344
63.7200 7.9515
63.7300 12.9014
63.7400 13.1722
63.7500 8.7265
63.7600 4.9932
63.7700 10.1005
63.7800 12.2780
63.7900 7.1316
63.8000 6.5487
63.8100 8.9287
63.8200 7.1646
63.8300 5.8746
63.8400 9.7127
63.8500 7.9682
63.8600 5.0778
63.8700 3.9966
63.8800 8.1105
63.8900 10.4618
63.9000 9.3761
63.9100 8.1132
63.9200 11.5175
63.9300 7.6905
63.9400 6.0150
63.9500 13.2757
63.9600 14.5964
63.9700 9.9531
63.9800 10.6277
63.9900 12.2345
64.0000 6.3791
64.0100 6.8752
64.0200 6.9132
64.0300 5.7016
64.0400 12.4176
64.0500 9.0050
64.0600 12.0822
64.0700 13.1607
64.0800 7.8114
64.0900 8.3983
64.1000 11.1128
64.1100 8.6391
64.1200 5.9923
64.1300 8.1279
64.1400 9.0258
64.1500 5.7030
64.1600 8.2780
64.1700 9.8079
64.1800 5.6932
64.1900 7.4708
64.2000 5.3003
64.2100 3.1038
64.2200 10.3039
64.2300 6.5143
64.2400 11.8156
64.2500 9.8877
64.2600 5.8190
64.2700 10.0230
64.2800 9.9517
64.2900 8.1407
64.3000 8.1826
64.3100 6.1342
64.3200 3.3958
64.3300 6.7206
64.3400 8.8479
64.3500 5.5274
64.3600 7.1767
64.3700 6.9602
64.3800 5.4426
64.3900 5.4821
64.4000 12.1729
64.4100 6.8615
64.4200 4.1703
64.4300 1.4828
64.4400 8.8170
64.4500 5.9458
64.4600 4.1233
64.4700 7.6854
64.4800 9.2310
64.4900 8.6469
64.5000 8.4784
64.5100 0.7045
64.5200 3.0191
64.5300 5.0417
64.5400 9.0795
64.5500 7.6924
64.5600 6.5932
64.5700 7.5937
64.5800 9.8985
64.5900 6.6368
64.6000 6.7300
64.6100 9.2187
64.6200 7.1712
64.6300 3.3014
64.6400 8.2740
64.6500 5.1551
64.6600 4.2104
64.6700 6.8537
64.6800 9.2410
64.6900 7.5720
64.7000 9.1333
64.7100 5.9124
64.7200 8.1209
64.7300 9.0283
64.7400 4.2317
64.7500 5.0592
64.7600 8.4760
64.7700 5.4442
64.7800 8.2293
64.7900 6.6115
64.8000 7.9439
64.8100 4.9491
64.8200 8.1255
64.8300 3.5828
64.8400 11.0796
64.8500 5.4080
64.8600 12.9859
64.8700 10.4986
64.8800 10.1128
64.8900 6.3228
64.9000 10.6354
64.9100 6.8181
64.9200 15.5967
64.9300 8.4286
64.9400 15.5457
64.9500 14.6661
64.9600 8.3234
64.9700 6.6109
64.9800 17.3608
64.9900 10.7512
65.0000 10.1642
65.0100 5.2665
65.0200 7.9045
65.0300 2.5816
65.0400 6.8518
65.0500 9.3425
65.0600 2.1951
65.0700 6.8215
65.0800 8.8798
65.0900 13.0018
65.1000 9.3589
65.1100 13.1196
65.1200 8.2495
65.1300 10.9878
65.1400 9.3936
65.1500 5.6114
65.1600 14.0054
65.1700 9.5287
65.1800 13.3376
65.1900 11.8640
65.2000 10.2509
65.2100 6.7679
65.2200 11.9183
65.2300 3.5452
65.2400 8.8818
65.2500 5.9773
65.2600 10.3091
65.2700 7.8070
65.2800 10.7299
65.2900 4.5677
65.3000 8.2961
65.3100 9.0237
65.3200 4.4300
65.3300 8.5535
65.3400 6.3949
65.3500 8.6961
65.3600 7.9681
65.3700 6.2609
65.3800 6.3307
65.3900 8.3771
65.4000 8.9015
65.4100 10.7960
65.4200 8.0776
65.4300 10.9248
65.4400 10.1628
65.4500 11.8795
65.4600 7.2193
65.4700 16.3961
65.4800 10.5781
65.4900 16.9727
65.5000 10.9352
65.5100 17.9808
65.5200 13.7679
65.5300 14.1627
65.5400 8.8491
65.5500 11.4042
65.5600 12.7258
65.5700 12.5816
65.5800 7.4383
65.5900 18.9508
65.6000 13.8804
65.6100 21.5294
65.6200 15.1270
65.6300 15.0013
65.6400 17.7071
65.6500 14.3634
65.6600 19.1568
65.6700 13.0857
65.6800 16.4251
65.6900 23.3348
65.7000 22.4529
65.7100 16.7917
65.7200 20.8040
65.7300 29.0441
65.7400 29.6757
65.7500 34.8308
65.7600 30.9087
65.7700 24.9727
65.7800 31.4582
65.7900 45.8705
65.8000 35.3117
65.8100 41.2155
65.8200 37.4682
65.8300 42.0523
65.8400 31.6597
65.8500 32.7840
65.8600 22.0128
65.8700 29.2670
65.8800 11.6374
65.8900 21.9960
65.9000 18.3340
65.9100 28.1193
65.9200 18.5231
65.9300 17.2197
65.9400 17.5410
65.9500 16.5439
65.9600 13.6909
65.9700 15.0156
65.9800 13.3346
65.9900 6.1805
66.0000 12.2335
66.0100 7.3428
66.0200 17.7204
66.0300 9.6925
66.0400 6.1861
66.0500 10.3184
66.0600 12.1113
66.0700 7.2353
66.0800 10.4737
66.0900 9.9427
66.1000 8.5437
66.1100 7.9305
66.1200 9.3011
66.1300 9.6044
66.1400 8.0150
66.1500 15.1356
66.1600 8.0510
66.1700 9.0301
66.1800 9.4761
66.1900 9.3858
66.2000 8.3293
66.2100 7.2533
66.2200 17.0835
66.2300 9.9077
66.2400 16.9545
66.2500 11.1860
66.2600 10.4956
66.2700 4.4237
66.2800 7.7302
66.2900 7.8954
66.3000 15.8342
66.3100 8.3792
66.3200 4.3068
66.3300 15.3199
66.3400 8.5183
66.3500 8.5843
66.3600 18.2293
66.3700 11.2819
66.3800 10.4900
66.3900 10.2262
66.4000 10.7472
66.4100 8.6845
66.4200 7.3092
66.4300 4.3790
66.4400 6.0168
66.4500 3.1472
66.4600 7.7836
66.4700 9.6653
66.4800 7.1089
66.4900 6.8843
66.5000 8.0307
66.5100 4.7388
66.5200 3.9455
66.5300 4.2807
66.5400 5.4967
66.5500 12.8794
66.5600 6.3248
66.5700 8.8066
66.5800 12.4331
66.5900 6.2104
66.6000 5.1400
66.6100 11.7666
66.6200 8.0233
66.6300 7.2730
66.6400 8.0158
66.6500 4.4558
66.6600 9.4899
66.6700 5.9618
66.6800 7.9729
66.6900 7.6865
66.7000 4.8780
66.7100 9.0498
66.7200 6.0448
66.7300 11.5585
66.7400 8.1104
66.7500 11.4056
66.7600 7.3375
66.7700 6.9783
66.7800 8.6508
66.7900 9.4590
66.8000 9.0649
66.8100 11.8363
66.8200 13.3799
66.8300 14.7513
66.8400 13.3073
66.8500 15.5818
66.8600 12.9055
66.8700 18.1705
66.8800 11.0370
66.8900 8.4460
66.9000 7.5784
66.9100 11.9902
66.9200 5.2683
66.9300 1.3317
66.9400 5.7501
66.9500 6.8610
66.9600 6.4642
66.9700 7.5032
66.9800 5.0462
66.9900 6.5977
67.0000 6.6495
67.0100 6.7063
67.0200 4.9620
67.0300 17.0055
67.0400 10.7531
67.0500 9.3745
67.0600 12.4119
67.0700 8.2812
67.0800 10.0437
67.0900 10.5158
67.1000 8.0266
67.1100 6.9708
67.1200 5.3042
67.1300 11.4589
67.1400 10.4814
67.1500 9.7151
67.1600 7.0739
67.1700 8.1946
67.1800 5.2599
67.1900 6.9683
67.2000 10.0229
67.2100 8.0681
67.2200 14.2533
67.2300 4.9985
67.2400 6.1081
67.2500 4.5237
67.2600 7.2330
67.2700 6.3837
67.2800 2.1853
67.2900 6.4246
67.3000 6.5598
67.3100 10.7824
67.3200 9.9162
67.3300 6.6165
67.3400 11.6965
67.3500 10.0015
67.3600 8.4714
67.3700 6.4131
67.3800 12.0167
67.3900 6.0034
67.4000 9.0815
67.4100 7.2649
67.4200 5.5605
67.4300 5.1553
67.4400 6.7111
67.4500 5.8209
67.4600 5.2044
67.4700 2.4890
67.4800 4.8300
67.4900 8.3181
67.5000 10.2068
67.5100 4.6781
67.5200 14.1819
67.5300 5.5191
67.5400 7.1859
67.5500 9.6910
67.5600 3.6062
67.5700 8.3942
67.5800 6.3454
67.5900 8.3791
67.6000 8.2955
67.6100 4.6652
67.6200 11.1496
67.6300 12.3011
67.6400 9.4995
67.6500 12.8984
67.6600 14.4012
67.6700 11.4727
67.6800 12.4024
67.6900 6.4497
67.7000 15.2231
67.7100 6.8849
67.7200 5.4728
67.7300 5.3991
67.7400 13.4341
67.7500 7.6045
67.7600 6.8294
67.7700 2.9788
67.7800 7.7167
67.7900 9.2566
67.8000 7.5572
67.8100 7.6138
67.8200 11.2479
67.8300 4.4203
67.8400 10.0958
67.8500 10.1419
67.8600 7.4785
67.8700 5.8382
67.8800 3.5479
67.8900 6.5065
67.9000 3.6683
67.9100 7.7857
67.9200 8.2267
67.9300 7.4894
67.9400 6.8915
67.9500 4.5347
67.9600 8.8811
67.9700 8.8922
67.9800 7.5730
67.9900 9.1540
68.0000 6.1221
68.0100 4.6196
68.0200 9.3554
68.0300 9.6222
68.0400 11.9258
68.0500 8.0175
68.0600 10.4327
68.0700 6.1089
68.0800 8.5806
68.0900 7.3814
68.1000 6.2784
68.1100 9.4292
68.1200 7.4021
68.1300 11.2680
68.1400 4.7851
68.1500 10.0771
68.1600 5.8943
68.1700 5.7914
68.1800 7.4007
68.1900 4.5381
68.2000 5.5983
68.2100 7.1693
68.2200 3.3304
68.2300 8.0566
68.2400 4.2285
68.2500 6.3094
68.2600 8.3828
68.2700 6.5760
68.2800 9.2478
68.2900 8.3985
68.3000 5.4511
68.3100 8.6330
68.3200 5.2590
68.3300 14.2788
68.3400 6.4227
68.3500 16.3397
68.3600 9.1549
68.3700 23.1385
68.3800 5.6297
68.3900 17.8538
68.4000 6.9790
68.4100 17.8339
68.4200 9.7881
68.4300 11.3506
68.4400 7.5096
68.4500 3.9666
68.4600 5.2362
68.4700 8.7747
68.4800 13.6701
68.4900 8.3565
68.5000 17.3540
68.5100 11.2441
68.5200 17.0045
68.5300 8.0849
68.5400 11.0609
68.5500 8.3305
68.5600 11.1120
68.5700 12.5889
68.5800 5.2375
68.5900 8.7550
68.6000 10.7529
68.6100 5.3170
68.6200 11.0232
68.6300 6.7632
68.6400 12.8054
68.6500 7.9264
68.6600 17.8358
68.6700 6.5278
68.6800 18.0665
68.6900 12.1636
68.7000 10.6366
68.7100 7.1150
68.7200 14.6623
68.7300 10.5922
68.7400 11.4827
68.7500 11.8409
68.7600 15.2313
68.7700 12.0546
68.7800 14.1522
68.7900 13.2736
68.8000 7.4675
68.8100 6.6642
68.8200 10.1378
68.8300 7.2638
68.8400 7.0404
68.8500 4.5854
68.8600 5.7174
68.8700 7.3435
68.8800 10.1968
68.8900 7.4510
68.9000 7.1588
68.9100 6.2152
68.9200 6.6348
68.9300 10.3904
68.9400 9.8394
68.9500 9.9251
68.9600 7.3131
68.9700 6.3411
68.9800 9.9489
68.9900 4.1095
69.0000 5.8571
69.0100 5.1885
69.0200 7.6935
69.0300 5.4587
69.0400 4.8145
69.0500 9.3720
69.0600 13.0468
69.0700 6.2488
69.0800 8.3639
69.0900 7.1633
69.1000 6.8605
69.1100 8.8423
69.1200 9.4609
69.1300 9.1452
69.1400 5.4057
69.1500 5.9198
69.1600 5.8154
69.1700 7.9855
69.1800 5.4602
69.1900 4.4416
69.2000 11.5340
69.2100 5.1419
69.2200 11.1565
69.2300 15.0180
69.2400 7.6963
69.2500 4.6169
69.2600 8.0043
69.2700 5.5227
69.2800 8.9518
69.2900 8.1728
69.3000 7.1970
69.3100 9.0913
69.3200 5.9884
69.3300 7.5433
69.3400 5.2754
69.3500 10.6087
69.3600 6.9326
69.3700 10.6733
69.3800 7.8458
69.3900 6.3176
69.4000 5.4164
69.4100 11.1130
69.4200 5.3601
69.4300 7.7350
69.4400 7.0211
69.4500 9.8540
69.4600 9.7586
69.4700 13.5582
69.4800 7.5205
69.4900 7.1163
69.5000 7.4633
69.5100 6.8317
69.5200 10.8851
69.5300 7.2982
69.5400 7.0076
69.5500 8.7067
69.5600 7.5926
69.5700 7.8456
69.5800 7.7154
69.5900 12.4931
69.6000 3.3235
69.6100 10.1423
69.6200 4.9425
69.6300 8.5134
69.6400 12.8303
69.6500 11.3819
69.6600 4.1344
69.6700 4.9911
69.6800 7.4582
69.6900 6.7569
69.7000 7.2922
69.7100 13.1504
69.7200 9.1915
69.7300 7.0080
69.7400 10.9845
69.7500 5.3533
69.7600 9.9564
69.7700 9.0106
69.7800 3.4111
69.7900 6.6415
69.8000 11.3178
69.8100 7.6245
69.8200 10.0508
69.8300 5.7641
69.8400 9.1287
69.8500 6.6435
69.8600 6.6423
69.8700 5.7533
69.8800 8.7120
69.8900 13.8413
69.9000 10.8469
69.9100 8.3279
69.9200 7.6888
69.9300 15.0902
69.9400 7.2208
69.9500 13.5783
69.9600 13.9102
69.9700 12.7285
69.9800 6.1736
69.9900 3.7531
70.0000 11.2568
70.0100 3.0955
70.0200 7.1798
70.0300 4.2513
70.0400 9.5023
70.0500 5.8812
70.0600 11.0755
70.0700 7.5229
70.0800 11.3084
70.0900 12.8704
70.1000 5.7671
70.1100 6.9051
70.1200 5.3759
70.1300 5.7190
70.1400 5.4574
70.1500 6.2827
70.1600 4.0706
70.1700 9.4129
70.1800 5.2730
70.1900 7.1551
70.2000 7.2262
70.2100 7.8983
70.2200 7.8544
70.2300 2.3920
70.2400 5.0746
70.2500 10.2819
70.2600 10.3369
70.2700 12.2967
70.2800 10.2806
70.2900 6.3303
70.3000 8.0561
70.3100 5.8487
70.3200 7.3830
70.3300 8.4330
70.3400 5.6132
70.3500 4.4151
70.3600 11.7327
70.3700 10.4927
70.3800 7.8283
70.3900 3.5435
70.4000 6.7899
70.4100 4.5862
70.4200 5.1213
70.4300 7.3768
70.4400 3.9501
70.4500 5.9874
70.4600 7.2488
70.4700 7.1696
70.4800 7.7013
70.4900 8.5889
70.5000 8.3796
70.5100 5.8405
70.5200 5.1737
70.5300 10.5908
70.5400 7.0008
70.5500 16.1435
70.5600 10.0830
70.5700 11.0123
70.5800 5.3129
70.5900 6.0944
70.6000 11.3013
70.6100 9.9744
70.6200 11.4785
70.6300 6.7803
70.6400 9.2581
70.6500 10.1383
70.6600 14.2292
70.6700 5.6529
70.6800 7.8532
70.6900 8.5393
70.7000 8.8056
70.7100 10.2108
70.7200 7.9490
70.7300 6.5079
70.7400 7.6279
70.7500 13.9150
70.7600 8.2095
70.7700 19.4935
70.7800 7.1554
70.7900 15.2708
70.8000 9.0538
70.8100 13.6909
70.8200 9.8922
70.8300 8.5421
70.8400 6.1804
70.8500 5.5763
70.8600 5.3365
70.8700 8.1618
70.8800 9.2848
70.8900 9.4941
70.9000 9.3279
70.9100 2.6676
70.9200 6.9822
70.9300 9.9153
70.9400 12.6747
70.9500 9.3049
70.9600 10.6303
70.9700 4.0231
70.9800 5.9584
70.9900 8.2776
71.0000 7.0741
71.0100 5.2288
71.0200 5.2580
71.0300 7.6761
71.0400 12.8626
71.0500 7.5808
71.0600 9.6249
71.0700 5.2073
71.0800 6.9038
71.0900 6.1942
71.1000 2.9069
71.1100 11.2812
71.1200 11.0738
71.1300 10.1911
71.1400 6.2278
71.1500 8.4584
71.1600 10.0150
71.1700 11.2545
71.1800 4.3354
71.1900 12.8225
71.2000 8.3132
71.2100 7.3984
71.2200 5.0957
71.2300 10.6623
71.2400 7.4447
71.2500 6.8766
71.2600 10.5122
71.2700 4.2616
71.2800 11.9218
71.2900 9.9012
71.3000 10.2172
71.3100 10.2870
71.3200 17.1981
71.3300 11.5541
71.3400 17.6801
71.3500 10.8589
71.3600 11.8864
71.3700 10.7267
71.3800 6.9215
71.3900 8.6796
71.4000 11.6944
71.4100 10.2892
71.4200 5.0735
71.4300 7.1211
71.4400 8.6432
71.4500 14.4541
71.4600 9.2195
71.4700 12.3871
71.4800 14.8034
71.4900 13.6632
71.5000 14.2684
71.5100 8.4651
71.5200 9.8659
71.5300 13.0428
71.5400 14.4202
71.5500 9.5324
71.5600 13.2627
71.5700 4.6056
71.5800 7.3609
71.5900 9.9366
71.6000 11.6082
71.6100 5.4691
71.6200 10.5972
71.6300 6.6803
71.6400 10.5493
71.6500 6.1083
71.6600 5.7026
71.6700 9.7408
71.6800 9.5309
71.6900 7.1193
71.7000 3.1324
71.7100 7.1652
71.7200 14.9914
71.7300 7.3429
71.7400 11.2731
71.7500 9.5208
71.7600 7.5465
71.7700 7.3639
71.7800 8.6274
71.7900 8.0940
71.8000 6.6122
71.8100 6.4855
71.8200 7.0224
71.8300 7.1626
71.8400 6.4499
71.8500 8.0721
71.8600 11.0933
71.8700 13.0276
71.8800 10.9299
71.8900 8.2105
71.9000 8.1883
71.9100 6.9874
71.9200 2.9175
71.9300 7.6600
71.9400 6.3232
71.9500 10.1087
71.9600 10.5492
71.9700 5.9587
71.9800 10.0721
71.9900 6.2089
72.0000 9.2287
72.0100 7.6324
72.0200 7.7501
72.0300 10.6917
72.0400 9.7506
72.0500 9.4976
72.0600 9.9437
72.0700 6.5864
72.0800 6.6607
72.0900 9.6036
72.1000 7.1368
72.1100 7.2822
72.1200 8.6178
72.1300 14.1077
72.1400 6.0977
72.1500 10.3025
72.1600 6.3732
72.1700 7.9383
72.1800 8.7829
72.1900 7.7654
72.2000 3.7528
72.2100 9.6723
72.2200 7.7429
72.2300 5.2348
72.2400 5.2986
72.2500 7.8523
72.2600 6.3377
72.2700 8.5730
72.2800 10.0629
72.2900 7.9409
72.3000 10.7641
72.3100 3.6489
72.3200 6.8367
72.3300 9.0367
72.3400 5.4069
72.3500 12.4672
72.3600 9.7198
72.3700 10.2539
72.3800 8.0826
72.3900 12.3944
72.4000 10.9216
72.4100 11.4208
72.4200 11.7747
72.4300 18.0652
72.4400 10.4705
72.4500 10.5290
72.4600 8.8844
72.4700 12.7905
72.4800 12.1747
72.4900 4.4311
72.5000 16.4699
72.5100 7.6233
72.5200 9.2366
72.5300 9.3679
72.5400 8.8027
72.5500 13.2427
72.5600 7.8394
72.5700 8.3572
72.5800 6.1886
72.5900 7.2166
72.6000 4.0296
72.6100 5.0092
72.6200 3.9072
72.6300 5.9543
72.6400 5.2864
72.6500 7.8324
72.6600 12.6523
72.6700 11.5891
72.6800 12.3420
72.6900 12.2291
72.7000 7.7135
72.7100 12.8397
72.7200 9.9809
72.7300 5.7004
72.7400 3.9581
72.7500 11.8524
72.7600 7.9439
72.7700 9.1449
72.7800 6.2248
72.7900 4.3839
72.8000 6.9588
72.8100 9.8594
72.8200 8.9322
72.8300 11.8713
72.8400 7.8774
72.8500 8.0501
72.8600 6.7872
72.8700 9.9181
72.8800 9.5870
72.8900 11.4427
72.9000 7.4861
72.9100 5.7125
72.9200 7.2581
72.9300 7.7281
72.9400 3.8810
72.9500 4.9838
72.9600 8.5401
72.9700 8.3072
72.9800 10.9222
72.9900 9.7060
73.0000 11.3221
73.0100 4.6052
73.0200 11.4257
73.0300 7.7146
73.0400 8.8296
73.0500 8.9375
73.0600 9.0154
73.0700 14.3489
73.0800 14.2028
73.0900 15.3646
73.1000 3.9694
73.1100 9.5520
73.1200 14.7129
73.1300 9.2320
73.1400 10.7747
73.1500 11.4296
73.1600 4.2422
73.1700 3.4766
73.1800 8.9247
73.1900 11.4730
73.2000 14.2642
73.2100 6.5679
73.2200 8.1590
73.2300 5.1754
73.2400 5.3790
73.2500 8.9463
73.2600 7.6839
73.2700 5.0306
73.2800 6.6982
73.2900 10.2607
73.3000 11.9097
73.3100 4.7085
73.3200 8.4067
73.3300 13.8293
73.3400 7.5124
73.3500 10.3511
73.3600 10.3482
73.3700 10.8407
73.3800 4.8053
73.3900 9.1545
73.4000 5.1895
73.4100 3.2796
73.4200 3.2480
73.4300 4.4951
73.4400 4.7633
73.4500 5.2031
73.4600 4.3727
73.4700 3.9725
73.4800 8.0469
73.4900 6.3390
73.5000 6.1898
73.5100 8.8238
73.5200 13.8367
73.5300 8.3519
73.5400 5.2775
73.5500 7.8276
73.5600 5.1158
73.5700 8.1241
73.5800 10.0283
73.5900 7.8259
73.6000 9.0146
73.6100 5.7673
73.6200 13.0421
73.6300 5.1484
73.6400 14.0647
73.6500 4.7266
73.6600 8.2368
73.6700 8.5620
73.6800 8.7304
73.6900 9.4009
73.7000 6.5808
73.7100 9.3167
73.7200 7.9661
73.7300 2.5682
73.7400 9.2231
73.7500 8.6620
73.7600 9.1918
73.7700 12.1613
73.7800 12.6967
73.7900 6.1033
73.8000 11.5023
73.8100 6.0778
73.8200 6.9017
73.8300 8.2891
73.8400 8.2442
73.8500 10.5423
73.8600 5.2309
73.8700 12.8367
73.8800 10.3942
73.8900 12.5260
73.9000 9.0354
73.9100 10.0008
73.9200 10.5386
73.9300 10.6791
73.9400 8.4640
73.9500 13.8670
73.9600 8.0577
73.9700 4.2763
73.9800 4.0364
73.9900 7.9429
74.0000 8.0082
74.0100 6.6918
74.0200 7.3962
74.0300 8.0802
74.0400 7.8314
74.0500 6.8766
74.0600 9.2707
74.0700 6.6156
74.0800 6.9682
74.0900 8.1833
74.1000 12.6104
74.1100 13.4372
74.1200 11.1339
74.1300 11.4130
74.1400 15.7609
74.1500 5.9825
74.1600 8.4826
74.1700 8.5363
74.1800 7.0267
74.1900 3.1790
74.2000 4.8528
74.2100 10.8252
74.2200 5.9577
74.2300 11.2947
74.2400 10.1517
74.2500 14.8757
74.2600 9.1020
74.2700 10.2707
74.2800 10.2212
74.2900 11.2006
74.3000 7.2862
74.3100 7.8574
74.3200 5.8927
74.3300 6.5349
74.3400 6.4170
74.3500 12.2699
74.3600 7.3751
74.3700 11.9487
74.3800 7.5688
74.3900 21.9521
74.4000 9.8229
74.4100 10.3919
74.4200 7.5248
74.4300 10.7354
74.4400 7.7804
74.4500 3.9870
74.4600 5.0572
74.4700 7.6550
74.4800 7.9062
74.4900 5.1381
74.5000 7.4232
74.5100 8.5857
74.5200 7.3741
74.5300 9.5999
74.5400 10.3607
74.5500 7.1531
74.5600 7.8439
74.5700 6.7923
74.5800 6.5321
74.5900 5.9884
74.6000 7.6092
74.6100 5.2060
74.6200 10.1633
74.6300 8.4678
74.6400 11.8900
74.6500 10.9274
74.6600 11.4803
74.6700 9.8742
74.6800 6.9358
74.6900 11.1453
74.7000 7.5317
74.7100 20.0402
74.7200 15.5362
74.7300 12.9164
74.7400 13.5177
74.7500 11.1076
74.7600 12.7269
74.7700 10.0059
74.7800 8.8214
74.7900 7.9885
74.8000 14.4507
74.8100 12.9934
74.8200 13.1057
74.8300 9.6197
74.8400 14.1748
74.8500 8.9010
74.8600 14.4117
74.8700 2.9670
74.8800 5.6168
74.8900 8.5110
74.9000 6.5159
74.9100 6.4315
74.9200 9.8810
74.9300 13.0441
74.9400 11.7831
74.9500 11.8416
74.9600 7.3112
74.9700 6.0144
74.9800 6.6359
74.9900 7.4296
75.0000 7.0324
75.0100 4.7620
75.0200 9.9440
75.0300 3.9434
75.0400 8.4367
75.0500 6.8944
75.0600 7.2942
75.0700 6.0418
75.0800 7.6784
75.0900 9.4320
75.1000 7.0289
75.1100 5.3195
75.1200 8.4702
75.1300 7.4321
75.1400 6.3430
75.1500 6.1167
75.1600 7.8826
75.1700 4.0867
75.1800 9.7714
75.1900 7.6865
75.2000 5.7312
75.2100 8.0560
75.2200 2.2719
75.2300 6.4859
75.2400 10.5996
75.2500 13.2639
75.2600 10.0000
75.2700 7.7961
75.2800 10.5172
75.2900 9.7090
75.3000 8.7930
75.3100 9.7105
75.3200 10.4588
75.3300 6.3307
75.3400 7.4377
75.3500 6.4322
75.3600 6.6249
75.3700 10.9847
75.3800 8.5321
75.3900 3.8101
75.4000 7.1216
75.4100 6.9835
75.4200 10.5842
75.4300 6.9237
75.4400 7.9881
75.4500 12.4282
75.4600 7.5409
75.4700 12.0524
75.4800 8.4459
75.4900 17.9048
75.5000 16.1512
75.5100 18.8842
75.5200 12.5094
75.5300 15.0163
75.5400 8.4755
75.5500 13.9852
75.5600 5.6347
75.5700 13.7439
75.5800 11.2501
75.5900 3.9374
75.6000 6.9802
75.6100 6.2538
75.6200 5.4401
75.6300 3.2136
75.6400 8.7838
75.6500 11.3483
75.6600 8.2584
75.6700 7.8139
75.6800 7.7027
75.6900 6.2936
75.7000 4.1454
75.7100 11.7008
75.7200 10.5417
75.7300 6.5339
75.7400 6.0396
75.7500 11.1098
75.7600 6.1194
75.7700 5.0975
75.7800 4.5988
75.7900 6.6376
75.8000 8.6225
75.8100 7.3582
75.8200 12.4376
75.8300 4.2864
75.8400 10.2922
75.8500 9.1932
75.8600 7.3501
75.8700 12.0738
75.8800 6.4186
75.8900 7.1351
75.9000 4.7461
75.9100 8.3112
75.9200 4.4735
75.9300 5.6561
75.9400 6.3613
75.9500 3.3287
75.9600 6.7452
75.9700 9.3856
75.9800 5.6707
75.9900 7.3620
76.0000 7.0104
76.0100 10.4623
76.0200 4.8437
76.0300 8.1506
76.0400 10.3546
76.0500 7.6355
76.0600 11.7457
76.0700 9.3030
76.0800 6.3691
76.0900 9.3752
76.1000 13.7125
76.1100 5.7218
76.1200 9.5357
76.1300 5.5614
76.1400 9.5201
76.1500 9.0026
76.1600 12.2668
76.1700 6.4627
76.1800 8.1842
76.1900 7.5201
76.2000 6.2523
76.2100 6.7719
76.2200 3.3772
76.2300 5.7600
76.2400 5.6187
76.2500 5.4343
76.2600 7.9333
76.2700 11.2918
76.2800 4.3886
76.2900 3.9144
76.3000 4.1461
76.3100 8.2082
76.3200 7.1934
76.3300 7.4636
76.3400 4.9134
76.3500 3.8799
76.3600 6.4192
76.3700 4.1614
76.3800 6.0715
76.3900 7.4084
76.4000 7.7159
76.4100 5.4651
76.4200 8.5380
76.4300 6.5012
76.4400 9.1779
76.4500 5.6891
76.4600 8.4685
76.4700 7.6962
76.4800 4.9737
76.4900 13.0747
76.5000 8.1449
76.5100 3.1155
76.5200 7.4621
76.5300 10.1643
76.5400 7.9944
76.5500 4.8901
76.5600 9.1657
76.5700 8.2602
76.5800 4.0544
76.5900 13.2966
76.6000 10.1989
76.6100 9.7621
76.6200 8.1539
76.6300 9.0708
76.6400 7.7820
76.6500 7.4199
76.6600 7.0247
76.6700 8.1536
76.6800 5.8148
76.6900 13.2011
76.7000 9.6144
76.7100 6.1807
76.7200 7.8208
76.7300 7.1995
76.7400 7.2699
76.7500 7.7417
76.7600 11.1362
76.7700 9.9668
76.7800 8.9052
76.7900 7.0649
76.8000 10.4525
76.8100 11.0428
76.8200 12.4995
76.8300 7.9514
76.8400 7.2658
76.8500 10.0320
76.8600 8.5790
76.8700 11.4226
76.8800 8.1978
76.8900 7.2049
76.9000 7.4360
76.9100 10.1198
76.9200 5.4748
76.9300 10.5394
76.9400 6.7552
76.9500 7.5184
76.9600 12.4523
76.9700 15.7932
76.9800 11.4550
76.9900 5.3849
77.0000 6.3964
77.0100 6.8790
77.0200 7.3001
77.0300 4.8276
77.0400 8.2376
77.0500 8.7161
77.0600 12.3734
77.0700 6.1404
77.0800 9.8877
77.0900 8.9758
77.1000 8.4703
77.1100 7.4986
77.1200 8.2755
77.1300 10.3258
77.1400 9.2967
77.1500 5.3741
77.1600 6.2496
77.1700 9.1787
77.1800 9.3618
77.1900 8.5673
77.2000 8.6976
77.2100 10.1691
77.2200 10.0461
77.2300 12.1246
77.2400 8.3734
77.2500 11.9737
77.2600 8.4985
77.2700 6.5739
77.2800 6.6084
77.2900 10.3777
77.3000 6.3625
77.3100 4.3856
77.3200 7.4956
77.3300 6.3843
77.3400 9.2694
77.3500 11.4054
77.3600 11.0395
77.3700 12.9407
77.3800 9.3139
77.3900 13.5539
77.4000 13.3102
77.4100 16.3981
77.4200 7.8218
77.4300 9.8013
77.4400 7.6078
77.4500 8.4198
77.4600 4.7035
77.4700 7.3723
77.4800 5.2739
77.4900 5.2495
77.5000 4.6440
77.5100 4.5145
77.5200 5.3493
77.5300 6.2774
77.5400 21.7338
77.5500 4.3521
77.5600 6.0949
77.5700 6.2422
77.5800 12.7183
77.5900 9.3099
77.6000 5.3413
77.6100 6.5920
77.6200 3.4391
77.6300 3.9218
77.6400 8.9115
77.6500 5.3220
77.6600 7.2751
77.6700 10.3158
77.6800 5.0083
77.6900 6.1881
77.7000 8.6527
77.7100 8.9925
77.7200 6.1787
77.7300 5.5415
77.7400 3.3070
77.7500 3.4811
77.7600 5.7113
77.7700 2.1929
77.7800 5.4738
77.7900 7.0735
77.8000 5.9372
77.8100 4.9336
77.8200 1.6584
77.8300 6.7344
77.8400 8.9344
77.8500 5.2535
77.8600 18.0289
77.8700 3.9121
77.8800 10.1192
77.8900 6.3115
77.9000 14.4207
77.9100 10.2604
77.9200 20.4901
77.9300 10.3426
77.9400 16.5423
77.9500 7.3914
77.9600 5.8806
77.9700 8.8307
77.9800 3.3437
77.9900 6.3932
78.0000 11.5937
78.0100 9.8629
78.0200 5.5762
78.0300 4.4397
78.0400 10.6285
78.0500 9.6775
78.0600 6.0150
78.0700 7.9100
78.0800 7.0882
78.0900 10.6027
78.1000 12.0983
78.1100 7.7388
78.1200 10.4611
78.1300 10.5043
78.1400 2.6829
78.1500 5.1553
78.1600 3.0606
78.1700 4.0332
78.1800 9.6032
78.1900 7.3047
78.2000 7.4741
78.2100 5.5702
78.2200 6.3887
78.2300 5.4218
78.2400 10.5915
78.2500 3.9734
78.2600 7.2201
78.2700 5.8111
78.2800 2.0370
78.2900 7.9365
78.3000 6.5463
78.3100 8.8742
78.3200 8.0008
78.3300 8.5387
78.3400 12.2430
78.3500 5.7920
78.3600 11.6257
78.3700 7.7354
78.3800 12.5155
78.3900 5.4179
78.4000 19.0246
78.4100 7.5143
78.4200 14.7738
78.4300 8.6316
78.4400 3.6325
78.4500 7.5303
78.4600 9.8329
78.4700 6.0605
78.4800 8.3041
78.4900 5.8263
78.5000 5.5075
78.5100 6.3531
78.5200 8.1845
78.5300 1.5984
78.5400 5.1995
78.5500 10.8785
78.5600 6.6609
78.5700 9.7015
78.5800 8.4180
78.5900 11.7193
78.6000 12.6461
78.6100 7.1535
78.6200 10.6988
78.6300 12.4855
78.6400 11.2140
78.6500 13.7607
78.6600 7.9771
78.6700 7.3046
78.6800 8.4036
78.6900 5.2743
78.7000 4.5879
78.7100 9.7310
78.7200 8.4377
78.7300 6.3186
78.7400 8.0140
78.7500 8.1401
78.7600 6.6281
78.7700 7.0504
78.7800 8.8241
78.7900 6.2868
78.8000 11.9734
78.8100 9.8053
78.8200 7.5230
78.8300 5.3016
78.8400 3.8228
78.8500 9.0504
78.8600 4.3244
78.8700 6.3631
78.8800 13.2202
78.8900 11.4616
78.9000 11.3025
78.9100 8.3456
78.9200 11.8126
78.9300 9.4330
78.9400 7.1082
78.9500 8.3069
78.9600 13.5432
78.9700 6.9749
78.9800 8.0628
78.9900 6.2045
79.0000 6.2960
79.0100 8.4813
79.0200 9.5756
79.0300 8.3114
79.0400 7.9666
79.0500 5.8352
79.0600 7.1117
79.0700 5.3977
79.0800 10.4348
79.0900 5.5873
79.1000 9.8537
79.1100 6.0199
79.1200 6.2961
79.1300 13.9811
79.1400 10.7602
79.1500 9.0247
79.1600 3.9513
79.1700 13.3875
79.1800 9.9805
79.1900 6.5929
79.2000 5.0264
79.2100 4.5588
79.2200 7.2317
79.2300 11.1898
79.2400 1.4933
79.2500 9.0443
79.2600 6.5800
79.2700 7.8836
79.2800 4.3562
79.2900 12.1877
79.3000 10.9066
79.3100 11.3394
79.3200 10.4458
79.3300 11.2560
79.3400 9.1296
79.3500 7.5508
79.3600 8.3076
79.3700 5.4578
79.3800 5.4459
79.3900 5.5641
79.4000 12.0976
79.4100 11.7647
79.4200 15.6625
79.4300 7.9766
79.4400 2.6210
79.4500 13.8592
79.4600 15.4633
79.4700 5.4903
79.4800 5.7045
79.4900 10.6428
79.5000 9.5353
79.5100 9.7719
79.5200 8.1380
79.5300 8.0909
79.5400 11.0735
79.5500 7.0692
79.5600 5.5963
79.5700 8.2899
79.5800 6.8118
79.5900 3.0046
79.6000 5.6343
79.6100 7.3619
79.6200 4.0127
79.6300 6.6525
79.6400 4.1827
79.6500 8.6571
79.6600 8.3238
79.6700 6.8212
79.6800 11.2701
79.6900 6.3340
79.7000 10.4243
79.7100 8.7128
79.7200 11.9013
79.7300 5.5979
79.7400 7.8036
79.7500 8.7093
79.7600 5.8158
79.7700 3.1572
79.7800 9.3445
79.7900 7.7639
79.8000 13.2825
79.8100 6.9048
79.8200 8.7142
79.8300 8.6478
79.8400 6.4448
79.8500 8.1062
79.8600 6.1057
79.8700 6.4473
79.8800 12.2154
79.8900 7.3756
79.9000 8.0664
79.9100 8.7100
79.9200 10.3410
79.9300 8.0342
79.9400 5.8227
79.9500 5.7969
79.9600 5.3796
79.9700 9.5175
79.9800 7.8477
79.9900 5.5973
80.0000 3.2651
80.0100 4.2664
80.0200 6.2522
80.0300 5.1702
80.0400 7.7774
80.0500 9.3019
80.0600 11.2865
80.0700 7.6360
80.0800 5.8998
80.0900 3.5946
80.1000 9.9698
80.1100 4.4134
80.1200 7.7094
80.1300 9.0513
80.1400 7.4059
80.1500 6.4017
80.1600 7.9653
80.1700 8.9394
80.1800 7.1414
80.1900 13.9378
80.2000 5.4317
80.2100 7.0936
80.2200 9.1497
80.2300 6.8017
80.2400 5.2160
80.2500 6.4881
80.2600 4.7318
80.2700 10.9372
80.2800 7.1371
80.2900 7.5898
80.3000 4.5903
80.3100 6.4562
80.3200 8.3134
80.3300 9.3550
80.3400 5.2149
80.3500 11.2835
80.3600 10.6671
80.3700 9.9415
80.3800 7.6097
80.3900 8.0231
80.4000 5.4704
80.4100 11.6810
80.4200 6.6614
80.4300 10.2158
80.4400 7.1382
80.4500 6.4991
80.4600 8.5203
80.4700 6.7587
80.4800 5.3743
80.4900 6.7073
80.5000 7.1961
80.5100 7.8024
80.5200 14.8001
80.5300 5.1649
80.5400 4.8778
80.5500 7.7449
80.5600 9.0895
80.5700 13.3848
80.5800 8.1369
80.5900 4.8571
80.6000 11.1424
80.6100 8.6530
80.6200 5.3563
80.6300 7.4923
80.6400 12.8481
80.6500 9.8208
80.6600 7.8744
80.6700 8.7205
80.6800 5.6544
80.6900 3.6509
80.7000 7.1411
80.7100 5.8218
80.7200 4.2064
80.7300 4.2350
80.7400 8.4102
80.7500 11.0380
80.7600 10.5372
80.7700 10.8953
80.7800 9.7029
80.7900 5.6176
80.8000 7.9458
80.8100 5.5109
80.8200 8.3699
80.8300 10.0347
80.8400 7.7263
80.8500 17.9814
80.8600 7.5503
80.8700 10.2774
80.8800 7.9216
80.8900 8.4125
80.9000 10.0394
80.9100 6.9491
80.9200 10.8563
80.9300 11.0632
80.9400 10.3773
80.9500 10.4336
80.9600 10.8483
80.9700 9.0622
80.9800 12.1369
80.9900 8.5718
81.0000 6.9458
81.0100 5.4769
81.0200 8.7383
81.0300 5.8043
81.0400 9.1524
81.0500 4.4251
81.0600 10.3219
81.0700 7.1836
81.0800 8.3090
81.0900 10.4598
81.1000 2.5205
81.1100 5.6195
81.1200 6.1762
81.1300 11.4900
81.1400 7.9226
81.1500 9.9283
81.1600 3.3128
81.1700 6.5108
81.1800 12.6469
81.1900 14.3477
81.2000 10.9600
81.2100 6.6073
81.2200 9.5212
81.2300 12.0390
81.2400 6.9467
81.2500 10.7200
81.2600 7.3280
81.2700 13.1408
81.2800 6.1985
81.2900 6.1030
81.3000 7.7609
81.3100 3.7750
81.3200 6.4782
81.3300 7.3772
81.3400 10.7731
81.3500 6.7669
81.3600 11.7280
81.3700 9.5020
81.3800 10.2300
81.3900 9.1683
81.4000 9.0236
81.4100 9.0817
81.4200 8.5476
81.4300 6.1377
81.4400 7.1445
81.4500 6.4174
81.4600 3.5921
81.4700 7.0489
81.4800 7.2172
81.4900 8.1991
81.5000 7.6703
81.5100 3.9884
81.5200 7.3098
81.5300 7.8999
81.5400 8.4657
81.5500 6.1901
81.5600 5.3792
81.5700 8.7836
81.5800 12.4444
81.5900 7.3649
81.6000 7.3880
81.6100 4.3512
81.6200 3.2548
81.6300 5.6929
81.6400 7.1158
81.6500 11.1801
81.6600 11.4235
81.6700 11.5405
81.6800 5.6119
81.6900 6.1452
81.7000 5.6362
81.7100 5.5550
81.7200 9.0414
81.7300 9.2355
81.7400 5.6943
81.7500 8.0676
81.7600 10.7261
81.7700 7.3321
81.7800 8.8928
81.7900 5.3710
81.8000 7.8249
81.8100 4.9699
81.8200 6.4762
81.8300 8.7453
81.8400 9.8144
81.8500 3.8694
81.8600 7.8703
81.8700 12.6181
81.8800 7.1126
81.8900 10.4665
81.9000 7.2397
81.9100 9.1458
81.9200 9.4316
81.9300 5.9073
81.9400 5.7862
81.9500 6.9516
81.9600 7.4933
81.9700 7.8470
81.9800 6.8660
81.9900 9.0253
82.0000 19.6890
82.0100 8.3869
82.0200 6.6446
82.0300 10.5545
82.0400 10.0371
82.0500 15.1824
82.0600 11.9605
82.0700 13.6328
82.0800 8.1617
82.0900 9.3925
82.1000 11.5200
82.1100 9.3248
82.1200 5.5371
82.1300 7.8232
82.1400 7.5850
82.1500 10.3399
82.1600 6.0303
82.1700 10.4173
82.1800 8.2734
82.1900 8.6701
82.2000 11.0180
82.2100 13.0087
82.2200 5.4719
82.2300 7.2363
82.2400 6.2248
82.2500 9.3241
82.2600 12.0293
82.2700 7.8526
82.2800 9.5570
82.2900 9.7969
82.3000 9.9781
82.3100 14.1818
82.3200 8.5974
82.3300 11.3422
82.3400 6.6355
82.3500 6.2379
82.3600 3.5952
82.3700 14.8437
82.3800 9.3830
82.3900 6.0946
82.4000 7.4425
82.4100 8.3095
82.4200 8.7938
82.4300 13.3960
82.4400 9.1985
82.4500 10.2337
82.4600 7.0919
82.4700 4.1686
82.4800 6.8595
82.4900 8.6232
82.5000 6.2969
82.5100 8.9402
82.5200 6.9084
82.5300 10.1791
82.5400 4.5552
82.5500 9.9984
82.5600 9.4510
82.5700 8.2358
82.5800 7.5270
82.5900 9.4087
82.6000 9.4881
82.6100 10.6625
82.6200 7.1528
82.6300 6.4127
82.6400 9.5837
82.6500 11.2147
82.6600 5.6381
82.6700 10.3357
82.6800 10.1491
82.6900 8.8613
82.7000 5.5258
82.7100 12.4789
82.7200 12.3158
82.7300 6.3074
82.7400 9.8302
82.7500 10.1969
82.7600 11.1224
82.7700 3.9414
82.7800 13.8728
82.7900 7.0970
82.8000 14.0787
82.8100 12.2661
82.8200 20.0536
82.8300 11.7393
82.8400 17.8532
82.8500 16.0495
82.8600 18.0242
82.8700 12.8854
82.8800 16.5520
82.8900 17.7418
82.9000 18.6622
82.9100 18.2725
82.9200 23.9626
82.9300 27.0193
82.9400 26.9147
82.9500 46.8321
82.9600 40.2540
82.9700 38.6688
82.9800 44.7840
82.9900 52.2898
83.0000 56.1485
83.0100 59.5219
83.0200 60.1555
83.0300 57.4716
83.0400 59.6481
83.0500 72.1909
83.0600 59.6860
83.0700 79.9591
83.0800 73.6353
83.0900 64.7807
83.1000 56.6803
83.1100 67.9628
83.1200 56.4872
83.1300 54.8806
83.1400 39.4189
83.1500 40.9923
83.1600 39.6730
83.1700 35.6720
83.1800 32.1110
83.1900 33.5852
83.2000 24.7382
83.2100 24.2932
83.2200 20.2867
83.2300 15.1702
83.2400 20.2203
83.2500 16.0335
83.2600 12.9354
83.2700 8.0855
83.2800 12.3270
83.2900 16.7670
83.3000 11.5133
83.3100 16.0206
83.3200 14.1764
83.3300 7.6440
83.3400 10.1299
83.3500 15.7059
83.3600 11.4434
83.3700 10.4266
83.3800 13.5382
83.3900 8.6666
83.4000 14.2454
83.4100 9.4728
83.4200 10.1994
83.4300 10.7440
83.4400 12.3510
83.4500 10.5007
83.4600 9.0824
83.4700 7.7450
83.4800 7.4114
83.4900 5.4657
83.5000 7.3376
83.5100 9.2428
83.5200 8.3248
83.5300 11.1586
83.5400 9.8325
83.5500 6.0088
83.5600 4.1755
83.5700 5.6016
83.5800 13.4140
83.5900 8.0171
83.6000 12.3041
83.6100 8.6866
83.6200 8.3289
83.6300 5.4721
83.6400 8.2668
83.6500 7.8259
83.6600 8.0761
83.6700 7.1354
83.6800 5.4490
83.6900 10.2929
83.7000 5.4005
83.7100 9.1547
83.7200 11.1832
83.7300 6.7965
83.7400 7.6212
83.7500 1.5259
83.7600 2.0087
83.7700 6.8240
83.7800 11.6684
83.7900 8.7130
83.8000 13.0672
83.8100 5.9960
83.8200 7.7989
83.8300 8.7413
83.8400 18.4412
83.8500 10.5613
83.8600 15.9414
83.8700 6.0338
83.8800 6.4555
83.8900 6.3240
83.9000 8.0712
83.9100 2.6569
83.9200 6.9167
83.9300 9.4542
83.9400 4.8085
83.9500 2.7788
83.9600 11.1825
83.9700 3.6516
83.9800 11.1644
83.9900 10.1103
84.0000 8.5339
84.0100 7.9101
84.0200 7.1059
84.0300 4.9447
84.0400 7.7507
84.0500 5.6612
84.0600 9.0893
84.0700 8.9172
84.0800 5.4654
84.0900 6.6162
84.1000 7.5277
84.1100 9.6722
84.1200 5.6171
84.1300 5.1899
84.1400 10.9831
84.1500 9.6572
84.1600 7.5039
84.1700 10.9393
84.1800 4.5795
84.1900 5.3387
84.2000 13.4073
84.2100 8.5469
84.2200 7.8157
84.2300 12.1243
84.2400 7.0144
84.2500 13.8946
84.2600 7.7047
84.2700 6.6827
84.2800 5.7740
84.2900 8.9813
84.3000 10.2672
84.3100 10.2777
84.3200 6.2476
84.3300 8.6677
84.3400 14.2890
84.3500 12.7150
84.3600 11.7727
84.3700 2.9860
84.3800 15.5600
84.3900 6.8323
84.4000 12.1027
84.4100 4.8535
84.4200 10.2568
84.4300 8.1715
84.4400 12.0187
84.4500 3.2501
84.4600 7.1731
84.4700 4.5590
84.4800 7.4512
84.4900 6.4398
84.5000 7.5396
84.5100 9.8703
84.5200 6.4148
84.5300 7.3261
84.5400 1.4957
84.5500 6.0318
84.5600 5.6151
84.5700 7.9565
84.5800 6.7057
84.5900 5.9223
84.6000 8.3884
84.6100 7.6780
84.6200 9.6804
84.6300 5.6782
84.6400 6.5094
84.6500 6.2447
84.6600 6.7322
84.6700 11.1206
84.6800 10.7760
84.6900 4.8088
84.7000 9.1059
84.7100 8.9746
84.7200 8.4853
84.7300 9.0500
84.7400 7.3922
84.7500 8.7929
84.7600 10.5412
84.7700 8.7004
84.7800 10.3859
84.7900 4.4655
84.8000 9.6940
84.8100 11.9577
84.8200 6.0607
84.8300 9.6593
84.8400 7.8565
84.8500 11.4402
84.8600 16.2532
84.8700 2.6740
84.8800 10.0075
84.8900 6.5964
84.9000 7.9510
84.9100 10.1129
84.9200 9.6134
84.9300 15.6795
84.9400 8.5585
84.9500 14.2745
84.9600 4.9730
84.9700 20.5315
84.9800 8.7410
84.9900 14.1522
85.0000 3.5190
85.0100 10.4086
85.0200 7.0882
85.0300 6.4480
85.0400 13.1644
85.0500 8.6287
85.0600 11.5695
85.0700 8.6238
85.0800 6.0939
85.0900 4.1957
85.1000 7.1434
85.1100 7.8427
85.1200 3.5709
85.1300 6.3500
85.1400 5.7938
85.1500 3.6446
85.1600 8.0429
85.1700 13.5586
85.1800 6.3701
85.1900 11.0612
85.2000 9.9366
85.2100 8.2333
85.2200 10.4490
85.2300 10.6807
85.2400 11.6444
85.2500 7.6713
85.2600 3.1021
85.2700 6.9807
85.2800 11.1635
85.2900 4.6212
85.3000 9.8898
85.3100 6.2318
85.3200 7.8175
85.3300 5.5528
85.3400 8.9583
85.3500 8.7768
85.3600 10.0805
85.3700 5.6887
85.3800 8.0498
85.3900 11.0972
85.4000 3.2231
85.4100 5.4424
85.4200 9.4064
85.4300 13.7787
85.4400 7.6748
85.4500 10.3038
85.4600 3.1922
85.4700 4.3134
85.4800 1.8225
85.4900 5.1491
85.5000 9.1014
85.5100 4.2563
85.5200 7.5045
85.5300 7.5962
85.5400 4.8155
85.5500 4.1436
85.5600 4.2290
85.5700 3.1369
85.5800 2.5955
85.5900 8.9227
85.6000 6.1487
85.6100 1.3830
85.6200 7.1651
85.6300 13.2748
85.6400 7.7799
85.6500 5.7479
85.6600 3.6650
85.6700 7.5391
85.6800 4.8049
85.6900 12.1585
85.7000 10.0914
85.7100 11.6354
85.7200 10.4543
85.7300 14.8956
85.7400 12.0417
85.7500 11.9440
85.7600 9.7613
85.7700 8.0793
85.7800 6.8204
85.7900 6.1335
85.8000 6.0084
85.8100 12.4142
85.8200 3.8316
85.8300 5.6940
85.8400 8.4917
85.8500 6.8249
85.8600 6.9607
85.8700 9.3371
85.8800 4.3528
85.8900 4.0794
85.9000 7.0585
85.9100 5.4928
85.9200 5.3755
85.9300 7.3495
85.9400 8.2972
85.9500 8.3789
85.9600 7.8843
85.9700 9.6494
85.9800 10.9977
85.9900 9.9854
86.0000 8.8011
86.0100 10.9940
86.0200 7.2140
86.0300 6.5303
86.0400 6.7061
86.0500 8.8018
86.0600 11.8974
86.0700 5.9497
86.0800 11.7797
86.0900 13.3116
86.1000 8.2467
86.1100 6.6537
86.1200 6.7906
86.1300 9.4258
86.1400 8.4699
86.1500 9.2288
86.1600 4.5352
86.1700 8.3374
86.1800 6.7890
86.1900 6.7540
86.2000 6.9489
86.2100 6.1062
86.2200 5.6190
86.2300 8.2848
86.2400 6.0808
86.2500 5.5947
86.2600 3.6520
86.2700 6.5584
86.2800 5.2121
86.2900 8.2828
86.3000 11.4684
86.3100 6.0067
86.3200 5.8892
86.3300 5.2978
86.3400 9.4773
86.3500 5.5990
86.3600 6.8938
86.3700 3.5680
86.3800 2.3930
86.3900 8.9052
86.4000 8.2691
86.4100 5.6936
86.4200 9.6971
86.4300 10.7066
86.4400 13.8234
86.4500 9.6138
86.4600 7.0579
86.4700 4.9770
86.4800 3.6872
86.4900 8.7201
86.5000 7.7245
86.5100 7.8386
86.5200 8.6512
86.5300 11.8071
86.5400 11.0022
86.5500 11.8695
86.5600 10.5092
86.5700 8.3215
86.5800 7.0319
86.5900 9.7392
86.6000 4.7943
86.6100 8.4953
86.6200 8.9288
86.6300 8.4325
86.6400 17.2696
86.6500 8.3424
86.6600 18.4976
86.6700 8.0527
86.6800 19.0910
86.6900 10.1377
86.7000 10.9783
86.7100 4.4880
86.7200 7.1810
86.7300 5.6733
86.7400 4.4257
86.7500 2.4979
86.7600 8.1418
86.7700 10.5113
86.7800 9.0890
86.7900 10.4812
86.8000 9.6449
86.8100 5.3866
86.8200 2.1133
86.8300 6.7536
86.8400 5.6827
86.8500 11.5880
86.8600 4.9537
86.8700 8.5777
86.8800 7.5302
86.8900 11.4634
86.9000 7.6740
86.9100 11.1822
86.9200 6.4259
86.9300 7.9278
86.9400 5.9471
86.9500 2.5120
86.9600 6.3241
86.9700 16.2013
86.9800 6.8380
86.9900 18.7630
87.0000 7.1674
87.0100 6.3434
87.0200 7.0001
87.0300 5.1577
87.0400 5.7040
87.0500 2.4913
87.0600 6.6783
87.0700 11.0302
87.0800 5.6816
87.0900 7.8815
87.1000 11.8357
87.1100 8.4586
87.1200 9.2290
87.1300 9.0257
87.1400 7.6100
87.1500 5.6989
87.1600 5.4766
87.1700 4.6218
87.1800 8.0830
87.1900 4.0096
87.2000 8.2318
87.2100 7.3151
87.2200 7.7799
87.2300 5.5494
87.2400 10.1390
87.2500 10.1443
87.2600 6.4523
87.2700 5.1169
87.2800 12.6533
87.2900 9.0927
87.3000 8.6194
87.3100 14.0236
87.3200 7.0684
87.3300 10.4257
87.3400 5.2544
87.3500 9.5071
87.3600 6.9211
87.3700 6.5970
87.3800 7.5438
87.3900 5.0074
87.4000 10.2033
87.4100 8.2314
87.4200 7.8489
87.4300 7.5768
87.4400 9.2401
87.4500 15.1844
87.4600 9.6251
87.4700 7.0049
87.4800 4.6865
87.4900 11.0392
87.5000 6.9744
87.5100 8.9848
87.5200 10.4494
87.5300 12.4146
87.5400 5.9172
87.5500 8.5946
87.5600 8.2256
87.5700 11.3053
87.5800 12.1864
87.5900 8.5087
87.6000 11.2426
87.6100 7.4435
87.6200 9.0335
87.6300 6.0023
87.6400 4.3646
87.6500 6.0155
87.6600 7.7286
87.6700 4.6764
87.6800 4.8331
87.6900 7.3678
87.7000 6.6905
87.7100 3.7079
87.7200 3.9950
87.7300 4.3014
87.7400 8.9130
87.7500 2.2861
87.7600 4.9160
87.7700 4.8417
87.7800 7.8425
87.7900 6.8784
87.8000 4.0628
87.8100 2.7618
87.8200 7.6854
87.8300 5.5165
87.8400 5.2305
87.8500 5.8398
87.8600 7.9345
87.8700 6.1258
87.8800 4.9893
87.8900 5.9119
87.9000 5.3123
87.9100 6.3704
87.9200 6.6805
87.9300 5.2267
87.9400 12.0795
87.9500 8.1902
87.9600 7.7946
87.9700 7.3944
87.9800 6.6433
87.9900 5.0551
88.0000 7.2252
88.0100 9.6402
88.0200 7.1945
88.0300 3.9680
88.0400 9.4310
88.0500 3.1679
88.0600 4.8072
88.0700 5.2450
88.0800 6.9881
88.0900 6.8142
88.1000 3.9983
88.1100 7.1513
88.1200 7.4254
88.1300 15.4675
88.1400 6.9182
88.1500 8.2106
88.1600 2.9484
88.1700 6.6278
88.1800 8.8941
88.1900 5.5482
88.2000 3.8947
88.2100 11.7560
88.2200 11.0888
88.2300 11.4533
88.2400 8.1266
88.2500 7.6240
88.2600 6.5852
88.2700 6.9618
88.2800 5.1963
88.2900 7.0737
88.3000 10.9500
88.3100 9.0256
88.3200 8.3331
88.3300 6.3220
88.3400 9.1737
88.3500 6.3901
88.3600 4.5618
88.3700 16.4388
88.3800 9.4051
88.3900 9.0242
88.4000 7.4878
88.4100 11.3465
88.4200 14.9636
88.4300 11.4308
88.4400 13.1396
88.4500 11.5290
88.4600 13.6457
88.4700 15.3789
88.4800 4.0319
88.4900 10.5319
88.5000 5.7456
88.5100 6.0189
88.5200 6.6844
88.5300 3.0712
88.5400 4.0920
88.5500 8.2284
88.5600 5.3331
88.5700 4.2945
88.5800 6.3756
88.5900 7.7025
88.6000 6.9292
88.6100 8.5189
88.6200 10.1089
88.6300 6.3074
88.6400 8.8798
88.6500 8.4282
88.6600 8.6012
88.6700 6.8551
88.6800 7.5901
88.6900 15.1680
88.7000 8.7956
88.7100 11.9214
88.7200 8.5514
88.7300 8.1250
88.7400 8.5861
88.7500 14.0009
88.7600 16.0678
88.7700 10.8164
88.7800 5.6271
88.7900 10.7038
88.8000 6.4293
88.8100 8.5607
88.8200 7.4285
88.8300 7.0834
88.8400 9.1038
88.8500 8.3700
88.8600 7.6682
88.8700 9.9990
88.8800 15.0174
88.8900 6.3599
88.9000 10.9366
88.9100 2.9806
88.9200 7.1793
88.9300 9.7965
88.9400 6.6982
88.9500 6.3349
88.9600 10.7766
88.9700 6.7347
88.9800 9.2883
88.9900 7.6111
89.0000 8.2666
89.0100 2.9575
89.0200 4.6857
89.0300 3.8190
89.0400 7.1149
89.0500 4.7378
89.0600 13.4137
89.0700 8.6780
89.0800 5.8736
89.0900 5.9270
89.1000 5.2730
89.1100 4.0242
89.1200 2.0310
89.1300 4.8030
89.1400 6.9158
89.1500 10.2446
89.1600 9.3692
89.1700 5.2134
89.1800 7.7230
89.1900 3.2452
89.2000 7.0404
89.2100 11.0978
89.2200 5.9228
89.2300 8.2758
89.2400 5.3289
89.2500 10.2957
89.2600 6.7421
89.2700 6.2081
89.2800 5.8274
89.2900 5.6274
89.3000 8.4027
89.3100 7.0325
89.3200 8.7231
89.3300 9.2857
89.3400 4.9132
89.3500 5.9332
89.3600 7.0549
89.3700 6.3733
89.3800 2.3531
89.3900 3.4581
89.4000 7.1782
89.4100 8.9177
89.4200 3.3973
89.4300 8.7545
89.4400 7.7769
89.4500 5.0110
89.4600 6.0779
89.4700 3.7809
89.4800 5.8933
89.4900 7.0132
89.5000 10.4768
89.5100 5.7741
89.5200 9.2538
89.5300 5.3483
89.5400 8.5101
89.5500 7.1671
89.5600 6.4950
89.5700 8.7274
89.5800 13.5061
89.5900 8.8556
89.6000 3.7697
89.6100 6.2226
89.6200 5.7082
89.6300 4.3113
89.6400 10.2373
89.6500 11.4881
89.6600 8.7159
89.6700 6.5812
89.6800 10.9305
89.6900 4.1963
89.7000 6.5431
89.7100 7.7405
89.7200 4.4642
89.7300 9.4158
89.7400 1.3281
89.7500 7.8011
89.7600 6.9000
89.7700 11.2664
89.7800 7.8884
89.7900 4.7629
89.8000 4.8341
89.8100 5.9577
89.8200 9.6897
89.8300 5.9307
89.8400 7.3289
89.8500 8.2674
89.8600 6.6179
89.8700 9.5490
89.8800 9.3113
89.8900 5.0451
89.9000 10.9381
89.9100 5.2548
89.9200 10.1688
89.9300 5.5932
89.9400 5.1983
89.9500 6.3078
89.9600 8.0292
89.9700 9.8830
89.9800 7.7131
89.9900 6.0680
90.0000 11.7149
90.0100 9.1387
90.0200 4.4744
90.0300 6.9760
90.0400 7.6516
90.0500 5.2314
90.0600 10.9384
90.0700 6.0849
90.0800 10.4335
90.0900 5.7135
90.1000 8.4992
90.1100 6.2716
90.1200 5.0170
90.1300 11.3341
90.1400 5.1248
90.1500 6.9897
90.1600 3.1494
90.1700 7.3091
90.1800 5.6992
90.1900 4.8364
90.2000 6.6925
90.2100 6.3763
90.2200 5.0663
90.2300 5.1120
90.2400 7.2421
90.2500 8.4896
90.2600 10.3676
90.2700 9.5430
90.2800 8.8163
90.2900 5.6720
90.3000 4.5980
90.3100 7.1533
90.3200 7.6728
90.3300 9.3184
90.3400 3.9088
90.3500 8.4499
90.3600 7.2921
90.3700 5.4928
90.3800 9.9525
90.3900 6.9563
90.4000 10.7067
90.4100 11.6727
90.4200 7.1272
90.4300 5.1485
90.4400 8.3796
90.4500 7.0601
90.4600 8.1938
90.4700 11.3226
90.4800 2.3793
90.4900 11.8924
90.5000 11.2761
90.5100 12.0604
90.5200 5.9213
90.5300 6.8797
90.5400 6.4598
90.5500 6.9675
90.5600 2.9224
90.5700 7.5622
90.5800 10.6438
90.5900 7.0683
90.6000 8.3001
90.6100 7.5626
90.6200 2.9121
90.6300 6.9098
90.6400 8.0826
90.6500 12.7546
90.6600 9.6472
90.6700 9.4371
90.6800 1.8532
90.6900 13.2400
90.7000 9.5923
90.7100 5.7761
90.7200 8.1238
90.7300 6.2854
90.7400 3.9935
90.7500 3.4077
90.7600 3.6146
90.7700 3.9749
90.7800 4.1101
90.7900 6.3079
90.8000 13.1848
90.8100 5.3793
90.8200 4.6756
90.8300 11.0991
90.8400 11.3194
90.8500 6.7794
90.8600 5.5508
90.8700 8.1439
90.8800 6.1148
90.8900 7.2135
90.9000 4.2291
90.9100 7.5947
90.9200 5.2442
90.9300 8.7846
90.9400 7.0881
90.9500 5.9439
90.9600 4.0213
90.9700 9.9068
90.9800 2.5895
90.9900 9.5762
91.0000 7.4400
91.0100 1.2146
91.0200 9.2929
91.0300 7.1242
91.0400 3.8715
91.0500 2.7528
91.0600 3.7037
91.0700 3.1438
91.0800 7.2265
91.0900 3.0486
91.1000 10.7151
91.1100 7.6698
91.1200 11.5426
91.1300 9.5555
91.1400 6.6203
91.1500 8.4916
91.1600 6.5007
91.1700 2.6217
91.1800 8.9125
91.1900 8.2412
91.2000 5.1190
91.2100 6.1551
91.2200 5.9826
91.2300 2.4800
91.2400 6.4963
91.2500 6.7837
91.2600 3.8779
91.2700 7.8101
91.2800 3.5211
91.2900 7.6329
91.3000 10.7777
91.3100 9.3162
91.3200 8.4361
91.3300 7.5888
91.3400 8.2149
91.3500 6.9859
91.3600 4.7317
91.3700 4.3374
91.3800 6.6668
91.3900 5.6237
91.4000 7.8837
91.4100 8.1578
91.4200 9.3636
91.4300 11.8098
91.4400 6.4811
91.4500 8.0570
91.4600 1.5920
91.4700 7.8590
91.4800 5.6979
91.4900 6.3559
91.5000 7.8421
91.5100 9.3857
91.5200 4.5930
91.5300 10.9579
91.5400 8.0041
91.5500 6.9263
91.5600 2.4417
91.5700 12.6088
91.5800 1.4258
91.5900 5.0621
91.6000 4.4865
91.6100 6.5348
91.6200 8.5749
91.6300 6.4341
91.6400 7.2766
91.6500 7.3469
91.6600 13.1359
91.6700 7.8609
91.6800 8.2446
91.6900 6.7843
91.7000 6.8302
91.7100 8.4362
91.7200 4.0435
91.7300 5.7233
91.7400 5.5235
91.7500 6.3728
91.7600 11.0619
91.7700 3.8579
91.7800 10.4803
91.7900 7.4177
91.8000 6.0927
91.8100 6.5436
91.8200 7.1110
91.8300 15.0331
91.8400 7.7430
91.8500 11.3398
91.8600 6.4661
91.8700 9.3831
91.8800 6.1419
91.8900 8.2425
91.9000 5.7479
91.9100 6.6075
91.9200 3.9448
91.9300 8.7110
91.9400 8.7087
91.9500 8.1888
91.9600 12.4571
91.9700 5.3659
91.9800 7.5108
91.9900 8.4015
92.0000 7.9193
92.0100 5.2876
92.0200 2.8320
92.0300 8.7163
92.0400 10.7360
92.0500 11.4780
92.0600 12.6925
92.0700 9.7833
92.0800 5.4538
92.0900 4.2752
92.1000 5.8231
92.1100 8.0981
92.1200 7.5410
92.1300 8.8172
92.1400 10.4516
92.1500 3.6809
92.1600 8.5030
92.1700 2.4506
92.1800 15.4875
92.1900 12.5485
92.2000 6.5403
92.2100 5.6593
92.2200 11.2105
92.2300 4.6906
92.2400 7.1194
92.2500 11.3823
92.2600 11.5723
92.2700 7.8306
92.2800 13.1491
92.2900 7.6531
92.3000 5.8912
92.3100 8.4352
92.3200 7.5910
92.3300 12.5401
92.3400 11.0038
92.3500 8.1752
92.3600 7.0900
92.3700 9.0956
92.3800 5.3045
92.3900 8.5044
92.4000 8.1548
92.4100 9.2688
92.4200 11.4900
92.4300 13.1073
92.4400 4.7918
92.4500 5.2823
92.4600 12.5767
92.4700 6.3330
92.4800 12.6166
92.4900 4.8481
92.5000 13.2739
92.5100 7.4701
92.5200 9.9684
92.5300 5.3446
92.5400 6.8521
92.5500 7.3608
92.5600 9.4179
92.5700 12.0577
92.5800 7.9569
92.5900 4.4848
92.6000 11.3299
92.6100 9.6626
92.6200 12.0182
92.6300 11.5530
92.6400 8.9211
92.6500 10.8603
92.6600 7.7153
92.6700 9.5561
92.6800 9.1850
92.6900 8.2074
92.7000 9.2008
92.7100 4.5179
92.7200 10.8812
92.7300 7.3129
92.7400 11.5689
92.7500 13.3256
92.7600 6.1063
92.7700 10.3376
92.7800 7.5109
92.7900 5.8389
92.8000 3.9635
92.8100 8.0299
92.8200 3.7972
92.8300 7.9992
92.8400 10.4235
92.8500 11.3723
92.8600 10.2541
92.8700 4.0321
92.8800 6.1405
92.8900 13.1041
92.9000 10.9748
92.9100 13.9439
92.9200 11.4503
92.9300 10.4353
92.9400 10.4325
92.9500 8.9588
92.9600 9.9277
92.9700 6.5621
92.9800 4.3633
92.9900 4.7011
93.0000 5.2205
93.0100 4.6867
93.0200 15.1565
93.0300 5.1239
93.0400 14.7310
93.0500 4.4167
93.0600 10.1850
93.0700 8.0311
93.0800 7.4848
93.0900 8.5281
93.1000 10.6584
93.1100 9.5367
93.1200 7.9330
93.1300 8.8963
93.1400 9.4821
93.1500 12.5187
93.1600 7.6197
93.1700 10.6188
93.1800 7.7300
93.1900 7.5567
93.2000 8.5746
93.2100 6.1198
93.2200 4.0564
93.2300 8.2408
93.2400 7.1529
93.2500 8.7920
93.2600 4.9565
93.2700 6.9359
93.2800 6.7019
93.2900 10.8519
93.3000 10.7773
93.3100 8.7252
93.3200 7.7440
93.3300 9.0082
93.3400 8.4363
93.3500 10.5013
93.3600 8.4236
93.3700 11.4408
93.3800 8.3175
93.3900 9.4514
93.4000 9.0923
93.4100 5.4797
93.4200 12.2804
93.4300 8.2922
93.4400 14.2174
93.4500 11.6773
93.4600 10.5111
93.4700 8.1179
93.4800 10.3279
93.4900 8.3421
93.5000 10.2863
93.5100 4.7191
93.5200 11.2240
93.5300 7.1183
93.5400 12.4356
93.5500 10.4610
93.5600 9.1730
93.5700 8.7111
93.5800 3.9555
93.5900 10.5379
93.6000 4.4637
93.6100 13.3187
93.6200 7.8565
93.6300 6.1569
93.6400 3.9068
93.6500 5.2289
93.6600 2.2774
93.6700 5.5127
93.6800 4.9809
93.6900 5.7229
93.7000 7.5267
93.7100 6.2370
93.7200 7.3557
93.7300 7.3376
93.7400 6.6062
93.7500 8.1829
93.7600 9.5155
93.7700 15.0257
93.7800 9.3250
93.7900 11.4190
93.8000 8.7579
93.8100 4.6406
93.8200 9.8046
93.8300 4.7248
93.8400 10.5412
93.8500 4.6738
93.8600 9.9243
93.8700 7.3032
93.8800 7.3756
93.8900 7.6686
93.9000 6.6552
93.9100 7.2647
93.9200 9.5143
93.9300 9.4930
93.9400 7.3228
93.9500 6.0264
93.9600 8.0045
93.9700 9.1961
93.9800 7.4618
93.9900 7.0265
94.0000 6.8611
94.0100 10.3368
94.0200 10.5224
94.0300 7.8510
94.0400 6.9397
94.0500 9.7636
94.0600 7.3937
94.0700 10.6507
94.0800 13.4652
94.0900 8.2395
94.1000 12.5649
94.1100 8.5739
94.1200 9.4782
94.1300 6.5339
94.1400 9.4319
94.1500 5.6261
94.1600 6.2912
94.1700 3.9431
94.1800 7.0663
94.1900 7.3814
94.2000 7.2543
94.2100 7.0415
94.2200 6.3129
94.2300 5.7639
94.2400 9.2230
94.2500 4.3328
94.2600 5.1994
94.2700 8.1554
94.2800 7.3727
94.2900 10.3934
94.3000 9.2438
94.3100 12.1497
94.3200 7.4882
94.3300 9.6750
94.3400 9.5079
94.3500 7.5520
94.3600 10.9908
94.3700 7.8755
94.3800 3.9798
94.3900 8.0955
94.4000 3.3456
94.4100 6.7940
94.4200 3.2097
94.4300 4.7232
94.4400 4.7383
94.4500 6.6457
94.4600 9.0999
94.4700 9.8199
94.4800 11.3773
94.4900 14.4315
94.5000 5.9147
94.5100 9.1889
94.5200 6.6495
94.5300 7.6613
94.5400 8.8026
94.5500 8.8631
94.5600 4.9330
94.5700 6.9834
94.5800 8.9992
94.5900 9.4261
94.6000 7.5417
94.6100 8.4681
94.6200 11.9810
94.6300 6.8716
94.6400 10.1147
94.6500 8.3879
94.6600 11.5791
94.6700 6.8177
94.6800 6.1075
94.6900 8.2161
94.7000 11.1473
94.7100 12.2427
94.7200 10.6741
94.7300 8.8503
94.7400 9.3022
94.7500 4.2024
94.7600 6.5659
94.7700 8.6456
94.7800 7.3402
94.7900 6.2897
94.8000 7.2457
94.8100 6.9339
94.8200 4.3243
94.8300 3.4162
94.8400 5.1896
94.8500 6.8227
94.8600 8.5275
94.8700 8.2769
94.8800 8.4648
94.8900 6.2551
94.9000 3.9637
94.9100 8.8001
94.9200 7.3058
94.9300 9.2020
94.9400 6.3800
94.9500 4.4040
94.9600 7.0199
94.9700 5.3105
94.9800 4.8240
94.9900 10.7404
95.0000 9.0740
95.0100 11.1077
95.0200 6.3282
95.0300 5.3159
95.0400 7.1220
95.0500 8.0482
95.0600 11.5063
95.0700 10.2210
95.0800 5.1036
95.0900 8.1527
95.1000 7.1715
95.1100 10.6956
95.1200 10.8576
95.1300 9.5892
95.1400 6.8950
95.1500 7.8850
95.1600 7.3668
95.1700 6.9349
95.1800 10.4114
95.1900 8.4931
95.2000 13.2399
95.2100 9.8291
95.2200 5.9529
95.2300 5.2570
95.2400 4.4670
95.2500 17.5300
95.2600 11.8961
95.2700 7.1484
95.2800 12.4294
95.2900 5.4549
95.3000 8.8206
95.3100 8.7689
95.3200 7.3956
95.3300 11.4507
95.3400 9.4907
95.3500 7.3289
95.3600 6.4395
95.3700 11.3911
95.3800 17.5644
95.3900 5.4930
95.4000 13.8273
95.4100 7.3603
95.4200 7.6637
95.4300 9.2114
95.4400 9.9676
95.4500 5.1517
95.4600 8.5694
95.4700 7.7850
95.4800 7.4140
95.4900 8.1659
95.5000 5.6718
95.5100 7.8019
95.5200 4.9826
95.5300 10.4998
95.5400 6.8841
95.5500 5.9772
95.5600 11.5396
95.5700 9.2845
95.5800 6.2336
95.5900 8.9340
95.6000 7.7722
95.6100 7.0832
95.6200 4.3272
95.6300 9.5628
95.6400 9.5400
95.6500 9.0682
95.6600 13.3346
95.6700 11.3410
95.6800 9.2132
95.6900 6.1745
95.7000 6.3268
95.7100 9.1221
95.7200 8.9897
95.7300 4.5293
95.7400 9.3095
95.7500 8.7036
95.7600 2.5878
95.7700 9.9146
95.7800 6.5199
95.7900 5.1885
95.8000 11.2951
95.8100 8.4584
95.8200 6.6875
95.8300 3.2766
95.8400 3.9565
95.8500 7.5427
95.8600 5.2312
95.8700 5.6251
95.8800 7.1258
95.8900 8.1267
95.9000 5.0680
95.9100 8.8044
95.9200 6.5389
95.9300 2.2155
95.9400 9.7022
95.9500 6.5927
95.9600 12.4262
95.9700 7.6485
95.9800 4.5498
95.9900 2.2394
96.0000 7.7385
96.0100 10.7128
96.0200 8.7966
96.0300 10.0742
96.0400 10.0944
96.0500 7.8188
96.0600 2.5622
96.0700 9.7250
96.0800 4.4769
96.0900 7.1162
96.1000 7.0169
96.1100 3.7154
96.1200 6.8666
96.1300 7.9316
96.1400 3.0847
96.1500 4.7639
96.1600 4.1997
96.1700 3.5255
96.1800 7.6297
96.1900 11.6146
96.2000 14.4888
96.2100 10.2354
96.2200 7.8393
96.2300 7.2415
96.2400 6.0457
96.2500 4.8534
96.2600 6.6282
96.2700 4.0779
96.2800 4.1163
96.2900 4.3843
96.3000 6.3429
96.3100 7.5007
96.3200 7.2766
96.3300 4.2656
96.3400 14.0112
96.3500 14.4013
96.3600 13.4236
96.3700 8.3034
96.3800 7.6945
96.3900 7.4566
96.4000 9.7018
96.4100 6.3022
96.4200 5.4864
96.4300 9.9141
96.4400 9.1744
96.4500 10.6538
96.4600 9.9641
96.4700 11.1991
96.4800 11.0395
96.4900 9.8244
96.5000 11.3851
96.5100 7.6378
96.5200 5.1993
96.5300 9.6022
96.5400 5.8888
96.5500 7.7909
96.5600 9.3416
96.5700 8.8451
96.5800 6.4224
96.5900 5.4642
96.6000 9.5275
96.6100 7.2713
96.6200 10.1539
96.6300 10.9453
96.6400 10.1413
96.6500 9.2288
96.6600 13.2484
96.6700 8.1261
96.6800 8.6773
96.6900 2.7897
96.7000 9.1912
96.7100 10.7224
96.7200 5.5845
96.7300 5.1212
96.7400 5.6838
96.7500 6.9834
96.7600 4.2960
96.7700 4.0170
96.7800 4.4124
96.7900 6.7274
96.8000 8.5418
96.8100 8.5608
96.8200 8.0603
96.8300 9.3348
96.8400 6.2444
96.8500 13.6001
96.8600 7.0665
96.8700 9.4563
96.8800 6.8973
96.8900 13.5579
96.9000 7.0692
96.9100 11.3251
96.9200 3.1279
96.9300 10.4242
96.9400 5.3268
96.9500 6.4164
96.9600 8.8363
96.9700 10.8918
96.9800 8.9267
96.9900 11.4468
97.0000 11.3908
97.0100 14.0774
97.0200 8.0080
97.0300 4.9093
97.0400 10.9630
97.0500 4.5223
97.0600 8.1446
97.0700 7.8902
97.0800 7.7457
97.0900 10.6755
97.1000 17.6056
97.1100 5.5379
97.1200 7.9411
97.1300 11.3407
97.1400 12.0833
97.1500 12.5423
97.1600 10.3969
97.1700 10.1501
97.1800 8.0108
97.1900 12.3223
97.2000 6.8519
97.2100 11.2802
97.2200 13.6486
97.2300 12.8669
97.2400 10.3965
97.2500 12.0418
97.2600 5.3893
97.2700 5.8780
97.2800 12.7145
97.2900 9.8644
97.3000 5.9568
97.3100 10.0405
97.3200 11.5821
97.3300 10.4006
97.3400 8.0186
97.3500 10.9566
97.3600 5.9212
97.3700 4.9286
97.3800 3.8243
97.3900 9.8344
97.4000 9.6962
97.4100 10.4728
97.4200 6.9675
97.4300 11.6649
97.4400 5.5109
97.4500 9.1885
97.4600 10.4378
97.4700 8.6557
97.4800 6.4060
97.4900 4.2660
97.5000 5.1686
97.5100 7.9017
97.5200 11.8328
97.5300 10.4991
97.5400 6.7529
97.5500 5.4107
97.5600 7.0084
97.5700 7.6017
97.5800 12.4269
97.5900 9.1283
97.6000 8.4012
97.6100 6.0049
97.6200 3.8859
97.6300 7.4609
97.6400 5.9228
97.6500 3.4805
97.6600 4.8990
97.6700 6.0646
97.6800 3.3223
97.6900 2.0056
97.7000 2.4478
97.7100 5.4892
97.7200 5.1195
97.7300 9.5434
97.7400 6.1893
97.7500 8.0113
97.7600 4.7591
97.7700 5.0735
97.7800 3.3397
97.7900 2.9991
97.8000 3.3806
97.8100 4.7939
97.8200 7.7202
97.8300 8.7594
97.8400 6.7341
97.8500 5.0910
97.8600 4.2024
97.8700 2.5771
97.8800 10.8749
97.8900 5.2898
97.9000 7.0491
97.9100 8.4644
97.9200 8.7895
97.9300 9.3057
97.9400 5.2039
97.9500 12.8478
97.9600 7.6193
97.9700 10.5647
97.9800 6.4263
97.9900 6.7794
98.0000 8.1993
98.0100 7.3146
98.0200 7.8960
98.0300 6.3412
98.0400 7.0237
98.0500 8.8652
98.0600 6.2691
98.0700 8.8775
98.0800 8.6480
98.0900 8.5179
98.1000 4.4379
98.1100 10.4632
98.1200 6.6338
98.1300 9.4183
98.1400 11.4473
98.1500 8.9881
98.1600 4.7316
98.1700 7.4153
98.1800 5.9887
98.1900 4.9133
98.2000 7.9490
98.2100 5.3508
98.2200 8.7530
98.2300 11.5215
98.2400 7.2736
98.2500 7.7793
98.2600 3.6399
98.2700 5.3386
98.2800 11.0889
98.2900 6.9596
98.3000 5.4087
98.3100 5.2693
98.3200 15.5875
98.3300 10.2155
98.3400 4.9825
98.3500 9.1134
98.3600 6.5147
98.3700 8.9785
98.3800 8.9805
98.3900 4.7647
98.4000 7.0774
98.4100 8.4121
98.4200 15.3258
98.4300 6.6079
98.4400 6.9070
98.4500 8.6717
98.4600 8.4680
98.4700 8.0386
98.4800 6.8421
98.4900 7.9606
98.5000 3.3529
98.5100 8.4654
98.5200 9.9323
98.5300 3.4771
98.5400 7.2120
98.5500 4.2769
98.5600 4.8774
98.5700 3.5162
98.5800 6.6967
98.5900 1.8625
98.6000 2.6280
98.6100 7.4087
98.6200 9.7224
98.6300 5.7087
98.6400 8.5652
98.6500 8.7130
98.6600 7.0605
98.6700 6.6724
98.6800 2.3592
98.6900 3.0395
98.7000 8.1276
98.7100 7.8981
98.7200 10.8900
98.7300 5.7745
98.7400 10.4331
98.7500 5.8983
98.7600 15.6197
98.7700 6.7924
98.7800 9.3482
98.7900 5.9911
98.8000 4.2722
98.8100 8.5186
98.8200 5.8707
98.8300 9.9031
98.8400 2.0231
98.8500 7.3073
98.8600 8.4386
98.8700 5.4785
98.8800 13.8519
98.8900 9.0381
98.9000 4.4076
98.9100 9.4936
98.9200 8.7823
98.9300 11.4728
98.9400 10.6486
98.9500 13.3335
98.9600 5.6718
98.9700 7.9825
98.9800 11.5432
98.9900 9.5951
99.0000 12.8717
99.0100 13.6448
99.0200 7.6531
99.0300 8.0081
99.0400 3.4276
99.0500 6.0126
99.0600 4.3107
99.0700 8.6216
99.0800 12.5282
99.0900 10.0074
99.1000 2.9540
99.1100 5.6377
99.1200 3.9071
99.1300 9.4827
99.1400 7.0554
99.1500 7.8906
99.1600 9.6254
99.1700 7.2329
99.1800 6.8120
99.1900 10.0311
99.2000 9.3403
99.2100 7.5126
99.2200 6.3502
99.2300 7.1934
99.2400 11.6597
99.2500 3.8693
99.2600 8.8488
99.2700 8.5959
99.2800 8.4248
99.2900 10.7597
99.3000 9.6797
99.3100 11.7019
99.3200 8.4963
99.3300 11.7266
99.3400 8.1754
99.3500 8.6801
99.3600 8.4831
99.3700 14.1015
99.3800 6.2297
99.3900 10.1709
99.4000 18.1383
99.4100 18.8270
99.4200 13.2102
99.4300 24.3601
99.4400 17.8226
99.4500 34.0421
99.4600 17.7857
99.4700 33.8252
99.4800 16.1757
99.4900 20.5484
99.5000 32.1814
99.5100 18.1051
99.5200 33.1815
99.5300 28.0195
99.5400 34.0806
99.5500 32.2340
99.5600 37.8227
99.5700 41.0723
99.5800 40.5765
99.5900 36.1244
99.6000 50.8203
99.6100 55.3904
99.6200 49.6945
99.6300 49.5980
99.6400 42.2709
99.6500 50.5753
99.6600 41.0627
99.6700 37.4982
99.6800 38.7387
99.6900 38.3575
99.7000 24.0107
99.7100 27.5584
99.7200 25.3471
99.7300 31.6229
99.7400 22.2507
99.7500 22.0468
99.7600 18.1138
99.7700 19.6059
99.7800 16.7058
99.7900 14.7538
99.8000 16.2742
99.8100 25.3815
99.8200 15.4912
99.8300 13.4820
99.8400 5.5418
99.8500 11.9604
99.8600 5.3646
99.8700 12.7600
99.8800 11.2028
99.8900 12.9692
99.9000 6.5893
99.9100 8.7049
99.9200 18.2986
99.9300 5.4116
99.9400 12.7679
99.9500 9.6581
99.9600 10.1397
99.9700 9.9078
99.9800 9.7156
99.9900 7.6562
100.0000 5.9028
100.0100 3.2632
100.0200 11.9835
100.0300 10.3036
100.0400 5.7667
100.0500 7.7725
100.0600 7.9849
100.0700 6.1058
100.0800 7.7508
100.0900 6.4323
100.1000 6.2218
100.1100 2.2772
100.1200 19.1965
100.1300 6.7489
100.1400 8.5823
100.1500 6.2595
100.1600 13.5047
100.1700 7.2739
100.1800 10.1111
100.1900 6.5225
100.2000 5.6667
100.2100 8.7689
100.2200 8.5884
100.2300 8.6946
100.2400 9.5791
100.2500 7.0460
100.2600 9.9839
100.2700 9.6106
100.2800 7.3866
100.2900 9.0495
100.3000 8.6649
100.3100 5.4528
100.3200 7.0053
100.3300 6.2206
100.3400 7.2470
100.3500 4.9468
100.3600 9.3424
100.3700 8.3998
100.3800 10.7116
100.3900 7.1309
100.4000 9.4029
100.4100 10.4541
100.4200 5.3210
100.4300 2.9828
100.4400 6.3699
100.4500 9.4113
100.4600 5.8147
100.4700 7.4726
100.4800 11.3397
100.4900 10.1739
100.5000 6.9427
100.5100 16.3555
100.5200 9.3391
100.5300 8.8331
100.5400 5.6461
100.5500 8.1803
100.5600 2.5003
100.5700 4.6570
100.5800 3.3234
100.5900 8.0374
100.6000 4.9001
100.6100 4.8120
100.6200 7.7763
100.6300 4.8201
100.6400 9.2331
100.6500 9.1712
100.6600 3.5043
100.6700 4.3215
100.6800 4.9228
100.6900 10.1933
100.7000 10.4335
100.7100 14.3958
100.7200 11.0158
100.7300 9.9230
100.7400 10.5664
100.7500 11.4102
100.7600 4.5564
100.7700 5.7824
100.7800 6.8705
100.7900 11.7855
100.8000 10.9122
100.8100 8.8679
100.8200 10.1219
100.8300 11.9505
100.8400 17.8236
100.8500 3.6623
100.8600 13.2476
100.8700 10.4802
100.8800 8.3395
100.8900 9.9522
100.9000 6.0959
100.9100 8.3680
100.9200 12.0595
100.9300 13.6881
100.9400 12.8199
100.9500 19.7048
100.9600 14.9800
100.9700 15.7639
100.9800 9.8850
100.9900 10.5224
101.0000 13.0823
101.0100 5.8919
101.0200 4.2031
101.0300 7.4131
101.0400 2.5366
101.0500 15.8338
101.0600 9.5555
101.0700 9.4569
101.0800 4.7338
101.0900 10.4177
101.1000 6.4670
101.1100 9.5494
101.1200 4.9469
101.1300 7.7794
101.1400 8.0395
101.1500 7.8650
101.1600 7.9259
101.1700 11.2538
101.1800 9.5071
101.1900 12.8564
101.2000 5.0285
101.2100 13.2187
101.2200 4.6063
101.2300 8.2565
101.2400 5.1897
101.2500 12.4695
101.2600 8.2643
101.2700 9.3323
101.2800 5.4347
101.2900 5.9648
101.3000 0.7283
101.3100 5.4051
101.3200 12.2094
101.3300 8.5905
101.3400 4.3106
101.3500 4.2398
101.3600 6.4513
101.3700 10.7397
101.3800 5.3944
101.3900 5.2973
101.4000 10.2340
101.4100 7.8784
101.4200 8.1481
101.4300 8.7958
101.4400 8.8690
101.4500 7.0753
101.4600 4.8116
101.4700 14.7914
101.4800 9.1816
101.4900 10.8985
101.5000 6.2643
101.5100 12.6171
101.5200 11.0666
101.5300 6.6455
101.5400 8.1605
101.5500 11.5445
101.5600 6.8126
101.5700 10.2577
101.5800 11.6142
101.5900 13.3378
101.6000 8.7075
101.6100 10.0079
101.6200 5.7689
101.6300 11.6428
101.6400 13.4848
101.6500 8.6278
101.6600 10.3715
101.6700 8.9289
101.6800 10.1038
101.6900 11.8685
101.7000 9.0769
101.7100 18.2392
101.7200 7.0152
101.7300 17.3346
101.7400 10.0490
101.7500 12.2389
101.7600 12.8256
101.7700 12.6672
101.7800 8.4429
101.7900 9.0689
101.8000 6.8961
101.8100 10.3492
101.8200 6.0122
101.8300 7.0775
101.8400 5.8795
101.8500 4.9919
101.8600 6.6585
101.8700 8.1016
101.8800 10.8346
101.8900 8.3299
101.9000 10.9296
101.9100 6.7414
101.9200 7.2899
101.9300 7.7088
101.9400 12.4098
101.9500 8.7645
101.9600 11.7429
101.9700 7.5308
101.9800 8.3323
101.9900 8.5606
102.0000 10.0073
102.0100 11.3047
102.0200 3.6822
102.0300 7.3872
102.0400 10.5351
102.0500 7.2839
102.0600 6.9085
102.0700 5.7879
102.0800 10.4146
102.0900 8.2254
102.1000 14.0644
102.1100 9.5749
102.1200 14.6620
102.1300 7.3303
102.1400 10.1879
102.1500 8.2869
102.1600 8.4739
102.1700 9.1349
102.1800 7.4439
102.1900 8.6707
102.2000 6.3955
102.2100 5.9096
102.2200 12.0312
102.2300 8.8725
102.2400 12.0792
102.2500 6.0593
102.2600 10.2591
102.2700 5.4824
102.2800 7.8539
102.2900 6.8514
102.3000 6.1532
102.3100 6.7779
102.3200 7.4436
102.3300 15.9782
102.3400 6.0672
102.3500 8.5814
102.3600 12.3383
102.3700 9.2992
102.3800 5.5760
102.3900 9.1267
102.4000 7.5106
102.4100 5.2869
102.4200 7.0008
102.4300 11.9609
102.4400 4.5660
102.4500 5.4057
102.4600 8.7956
102.4700 5.6337
102.4800 7.3972
102.4900 12.3004
102.5000 7.0650
102.5100 11.0058
102.5200 9.8624
102.5300 8.0289
102.5400 6.5267
102.5500 5.5209
102.5600 6.9986
102.5700 11.1737
102.5800 8.5431
102.5900 5.6767
102.6000 7.1793
102.6100 7.3487
102.6200 5.2752
102.6300 6.6479
102.6400 5.7842
102.6500 7.2366
102.6600 11.0930
102.6700 6.1170
102.6800 4.4416
102.6900 3.6374
102.7000 10.4254
102.7100 8.1002
102.7200 7.8571
102.7300 6.3655
102.7400 10.7806
102.7500 7.7934
102.7600 4.1945
102.7700 9.4949
102.7800 7.9245
102.7900 3.4841
102.8000 8.3312
102.8100 9.7288
102.8200 9.1195
102.8300 4.7278
102.8400 4.6925
102.8500 8.7056
102.8600 8.4447
102.8700 13.1513
102.8800 15.3122
102.8900 13.9095
102.9000 9.8130
102.9100 9.5447
102.9200 14.7691
102.9300 7.8818
102.9400 4.8317
102.9500 6.5483
102.9600 5.1595
102.9700 4.6216
102.9800 3.1524
102.9900 11.1728
103.0000 7.7069
103.0100 8.6366
103.0200 4.0270
103.0300 8.4495
103.0400 6.6147
103.0500 4.0741
103.0600 8.8184
103.0700 8.8332
103.0800 7.2877
103.0900 8.8460
103.1000 3.6543
103.1100 9.2132
103.1200 5.2535
103.1300 10.6830
103.1400 3.6944
103.1500 10.7245
103.1600 7.6698
103.1700 21.6969
103.1800 4.4578
103.1900 13.4192
103.2000 3.8256
103.2100 10.8643
103.2200 9.5909
103.2300 8.2052
103.2400 3.6611
103.2500 4.3015
103.2600 7.5157
103.2700 6.4995
103.2800 5.7827
103.2900 9.8473
103.3000 6.2207
103.3100 6.5994
103.3200 8.0869
103.3300 11.4278
103.3400 10.2228
103.3500 4.2177
103.3600 11.3313
103.3700 10.4117
103.3800 6.9218
103.3900 6.8051
103.4000 9.9768
103.4100 9.4561
103.4200 9.4109
103.4300 12.3091
103.4400 6.7541
103.4500 10.4313
103.4600 6.3139
103.4700 10.3120
103.4800 9.2505
103.4900 5.7297
103.5000 9.1370
103.5100 5.4972
103.5200 9.7961
103.5300 9.1752
103.5400 8.3663
103.5500 8.6905
103.5600 5.0156
103.5700 3.2197
103.5800 10.5188
103.5900 3.6346
103.6000 5.5062
103.6100 3.1839
103.6200 4.9477
103.6300 3.6080
103.6400 5.8268
103.6500 7.3247
103.6600 11.6026
103.6700 7.4273
103.6800 4.9454
103.6900 13.6613
103.7000 7.1057
103.7100 7.5732
103.7200 8.2851
103.7300 10.8856
103.7400 5.2959
103.7500 8.4098
103.7600 9.5368
103.7700 12.6964
103.7800 6.9459
103.7900 9.7384
103.8000 12.3185
103.8100 7.3649
103.8200 9.6235
103.8300 5.8215
103.8400 9.9584
103.8500 6.3244
103.8600 11.8177
103.8700 6.9707
103.8800 9.1693
103.8900 8.1702
103.9000 12.8593
103.9100 11.6499
103.9200 9.0254
103.9300 9.3084
103.9400 11.2009
103.9500 10.7427
103.9600 6.8542
103.9700 7.2376
103.9800 6.7608
103.9900 3.4196
104.0000 7.0625
104.0100 7.5797
104.0200 9.6812
104.0300 9.1255
104.0400 9.3294
104.0500 9.0833
104.0600 11.5183
104.0700 4.9141
104.0800 7.9078
104.0900 9.0573
104.1000 7.4019
104.1100 12.1529
104.1200 8.4326
104.1300 7.9998
104.1400 7.9736
104.1500 9.9123
104.1600 8.5998
104.1700 5.9992
104.1800 8.4180
104.1900 10.0095
104.2000 7.6720
104.2100 8.9964
104.2200 4.7944
104.2300 5.0190
104.2400 9.4307
104.2500 7.3791
104.2600 3.4245
104.2700 9.1404
104.2800 5.9816
104.2900 7.9026
104.3000 10.9689
104.3100 10.6651
104.3200 8.6512
104.3300 5.0823
104.3400 9.1484
104.3500 9.2443
104.3600 5.5667
104.3700 6.8589
104.3800 10.7040
104.3900 5.7069
104.4000 10.2747
104.4100 12.1746
104.4200 9.7501
104.4300 6.9552
104.4400 13.4022
104.4500 9.2279
104.4600 10.1381
104.4700 11.3211
104.4800 10.2126
104.4900 9.2740
104.5000 8.6919
104.5100 4.2221
104.5200 7.5992
104.5300 7.1411
104.5400 9.4074
104.5500 4.2330
104.5600 9.9795
104.5700 6.1671
104.5800 9.4666
104.5900 6.1227
104.6000 8.0740
104.6100 7.7753
104.6200 4.2097
104.6300 14.2015
104.6400 7.4367
104.6500 11.4615
104.6600 4.7043
104.6700 10.7436
104.6800 7.5308
104.6900 9.0458
104.7000 6.7505
104.7100 7.3423
104.7200 7.2773
104.7300 11.2113
104.7400 13.8919
104.7500 12.6791
104.7600 12.1893
104.7700 13.1247
104.7800 9.8191
104.7900 10.1639
104.8000 7.7664
104.8100 5.5147
104.8200 8.6174
104.8300 10.8962
104.8400 8.2812
104.8500 9.1660
104.8600 13.1820
104.8700 17.1393
104.8800 7.5374
104.8900 11.5992
104.9000 8.4708
104.9100 11.5886
104.9200 6.2598
104.9300 10.0804
104.9400 7.2701
104.9500 9.4624
104.9600 11.6549
104.9700 6.9697
104.9800 6.4472
104.9900 8.6917
105.0000 3.4219
105.0100 8.4108
105.0200 10.4168
105.0300 7.5952
105.0400 4.2426
105.0500 15.6004
105.0600 11.2576
105.0700 12.0799
105.0800 8.0561
105.0900 16.5985
105.1000 6.7241
105.1100 14.3844
105.1200 8.7283
105.1300 10.1560
105.1400 4.0457
105.1500 6.3851
105.1600 11.8169
105.1700 14.4747
105.1800 8.0454
105.1900 7.3197
105.2000 10.1317
105.2100 7.2949
105.2200 8.8543
105.2300 5.0947
105.2400 9.2655
105.2500 7.5027
105.2600 9.1120
105.2700 12.3620
105.2800 8.6330
105.2900 9.2013
105.3000 8.9110
105.3100 7.3427
105.3200 5.5867
105.3300 8.1182
105.3400 4.0675
105.3500 5.2438
105.3600 6.6816
105.3700 5.0205
105.3800 8.0639
105.3900 7.6164
105.4000 6.0928
105.4100 5.2834
105.4200 10.2177
105.4300 5.8476
105.4400 8.8539
105.4500 7.8220
105.4600 10.8813
105.4700 3.7551
105.4800 3.6950
105.4900 3.3833
105.5000 4.6310
105.5100 12.6656
105.5200 9.8169
105.5300 16.6274
105.5400 7.8830
105.5500 19.1597
105.5600 11.6724
105.5700 8.5825
105.5800 7.2836
105.5900 7.2784
105.6000 7.9576
105.6100 7.2346
105.6200 6.4392
105.6300 11.0430
105.6400 6.2929
105.6500 6.5158
105.6600 5.4396
105.6700 3.2284
105.6800 4.1807
105.6900 6.8951
105.7000 9.8853
105.7100 6.2636
105.7200 7.8057
105.7300 7.0147
105.7400 7.8809
105.7500 1.8790
105.7600 6.2198
105.7700 5.9811
105.7800 3.6355
105.7900 8.0336
105.8000 4.4834
105.8100 9.3828
105.8200 7.6288
105.8300 10.0369
105.8400 4.2865
105.8500 7.3616
105.8600 9.9459
105.8700 7.1909
105.8800 11.3216
105.8900 7.9543
105.9000 6.3737
105.9100 8.8967
105.9200 10.7997
105.9300 7.0212
105.9400 13.8264
105.9500 7.1645
105.9600 12.7816
105.9700 4.1143
105.9800 15.7855
105.9900 4.8037
106.0000 10.1889
106.0100 3.9118
106.0200 8.1379
106.0300 8.4820
106.0400 6.0709
106.0500 13.2139
106.0600 9.7147
106.0700 1.8964
106.0800 8.0927
106.0900 16.5728
106.1000 12.7837
106.1100 14.5975
106.1200 10.7736
106.1300 7.2259
106.1400 5.7623
106.1500 10.8858
106.1600 6.5274
106.1700 8.2152
106.1800 8.5524
106.1900 7.8745
106.2000 11.2637
106.2100 8.4546
106.2200 14.1518
106.2300 7.1592
106.2400 9.1868
106.2500 5.7613
106.2600 4.2002
106.2700 7.3102
106.2800 9.1300
106.2900 4.5798
106.3000 7.6747
106.3100 8.9687
106.3200 5.8262
106.3300 6.0145
106.3400 7.3492
106.3500 10.9479
106.3600 7.3584
106.3700 4.3935
106.3800 5.5752
106.3900 9.6925
106.4000 11.1570
106.4100 11.4268
106.4200 6.0246
106.4300 5.6020
106.4400 6.1332
106.4500 4.3526
106.4600 6.7736
106.4700 11.7063
106.4800 10.3406
106.4900 8.5608
106.5000 12.1528
106.5100 9.7110
106.5200 15.5107
106.5300 14.3258
106.5400 15.2492
106.5500 14.4189
106.5600 9.9885
106.5700 8.5149
106.5800 8.6764
106.5900 9.8528
106.6000 8.6451
106.6100 2.4254
106.6200 5.9002
106.6300 7.0592
106.6400 6.2243
106.6500 6.7525
106.6600 5.4806
106.6700 8.8702
106.6800 6.5987
106.6900 8.0500
106.7000 6.7785
106.7100 8.0367
106.7200 7.4737
106.7300 3.9300
106.7400 6.5433
106.7500 4.4656
106.7600 8.9047
106.7700 8.9662
106.7800 11.2811
106.7900 7.6681
106.8000 11.0886
106.8100 7.6643
106.8200 10.1367
106.8300 10.4997
106.8400 6.1811
106.8500 6.0840
106.8600 7.9845
106.8700 9.6754
106.8800 8.5512
106.8900 7.3640
106.9000 9.2685
106.9100 8.6906
106.9200 7.9318
106.9300 5.8263
106.9400 9.2462
106.9500 6.5883
106.9600 6.8728
106.9700 6.9479
106.9800 7.1699
106.9900 9.6210
107.0000 5.2662
107.0100 13.1296
107.0200 8.1847
107.0300 6.8276
107.0400 5.0105
107.0500 7.7088
107.0600 7.7248
107.0700 10.2909
107.0800 6.5202
107.0900 12.2322
107.1000 5.9779
107.1100 7.2654
107.1200 13.7286
107.1300 10.4799
107.1400 15.6153
107.1500 7.6734
107.1600 5.9918
107.1700 9.2407
107.1800 8.3834
107.1900 3.1352
107.2000 7.3951
107.2100 3.4579
107.2200 10.5042
107.2300 7.6544
107.2400 13.8353
107.2500 6.8079
107.2600 8.7824
107.2700 5.0755
107.2800 8.7265
107.2900 3.3411
107.3000 4.9260
107.3100 7.0451
107.3200 6.2669
107.3300 5.3547
107.3400 10.4931
107.3500 7.7335
107.3600 6.1553
107.3700 8.5465
107.3800 13.0681
107.3900 7.3489
107.4000 12.7216
107.4100 8.4822
107.4200 6.5667
107.4300 5.4085
107.4400 4.4933
107.4500 13.3321
107.4600 3.8506
107.4700 8.8311
107.4800 6.3509
107.4900 10.2003
107.5000 4.6978
107.5100 4.7026
107.5200 4.8354
107.5300 8.1559
107.5400 5.5021
107.5500 11.0839
107.5600 7.0783
107.5700 4.1866
107.5800 3.7788
107.5900 6.4301
107.6000 3.2719
107.6100 9.9571
107.6200 5.0417
107.6300 11.6635
107.6400 6.2736
107.6500 7.1073
107.6600 5.9928
107.6700 7.6102
107.6800 7.2264
107.6900 5.2094
107.7000 8.1008
107.7100 4.9037
107.7200 5.5910
107.7300 6.2435
107.7400 8.0944
107.7500 6.2141
107.7600 12.0616
107.7700 4.5638
107.7800 3.3153
107.7900 5.4863
107.8000 7.6269
107.8100 9.0866
107.8200 6.8787
107.8300 4.1976
107.8400 9.9108
107.8500 9.2928
107.8600 10.1468
107.8700 7.2158
107.8800 7.5651
107.8900 11.0169
107.9000 8.1748
107.9100 6.2029
107.9200 7.5550
107.9300 7.6735
107.9400 4.5087
107.9500 7.8505
107.9600 9.0718
107.9700 6.4214
107.9800 5.0010
107.9900 5.2367
108.0000 5.5079
108.0100 6.1509
108.0200 6.8314
108.0300 7.8738
108.0400 6.5568
108.0500 8.5335
108.0600 9.1421
108.0700 2.9622
108.0800 13.1709
108.0900 2.0151
108.1000 9.3499
108.1100 8.5448
108.1200 7.8460
108.1300 4.5247
108.1400 9.8397
108.1500 9.0303
108.1600 8.1591
108.1700 11.5180
108.1800 9.2639
108.1900 7.7932
108.2000 6.4861
108.2100 10.1728
108.2200 5.5919
108.2300 7.8743
108.2400 7.8809
108.2500 9.8445
108.2600 4.4096
108.2700 10.1919
108.2800 10.8525
108.2900 5.7486
108.3000 10.1200
108.3100 6.8460
108.3200 7.9341
108.3300 4.1941
108.3400 6.6612
108.3500 7.5270
108.3600 5.5585
108.3700 8.0753
108.3800 3.4738
108.3900 7.9683
108.4000 8.3490
108.4100 8.5140
108.4200 8.8500
108.4300 10.2635
108.4400 7.6670
108.4500 7.4143
108.4600 4.6177
108.4700 9.4940
108.4800 7.9996
108.4900 11.0795
108.5000 7.1399
108.5100 6.6531
108.5200 7.4144
108.5300 4.9141
108.5400 4.8082
108.5500 5.2722
108.5600 5.2730
108.5700 5.7206
108.5800 2.4190
108.5900 4.0733
108.6000 13.1469
108.6100 6.3292
108.6200 5.0641
108.6300 9.7132
108.6400 10.6109
108.6500 11.6893
108.6600 8.4185
108.6700 14.9859
108.6800 8.4791
108.6900 16.5053
108.7000 9.5934
108.7100 10.0780
108.7200 8.8129
108.7300 14.2691
108.7400 14.3840
108.7500 9.0096
108.7600 11.6855
108.7700 9.0677
108.7800 13.5305
108.7900 6.1537
108.8000 17.6741
108.8100 8.6957
108.8200 10.2606
108.8300 9.8749
108.8400 10.7861
108.8500 4.9615
108.8600 12.4484
108.8700 6.7788
108.8800 7.2092
108.8900 7.2507
108.9000 7.0682
108.9100 8.9252
108.9200 8.5940
108.9300 6.9161
108.9400 4.3978
108.9500 5.1771
108.9600 5.6955
108.9700 8.5185
108.9800 7.7339
108.9900 6.0154
109.0000 5.0532
109.0100 4.1740
109.0200 6.1335
109.0300 8.3020
109.0400 6.8797
109.0500 6.2103
109.0600 4.6635
109.0700 6.1046
109.0800 3.3273
109.0900 5.7530
109.1000 8.4316
109.1100 8.5236
109.1200 4.4222
109.1300 3.1241
109.1400 6.3637
109.1500 7.6876
109.1600 11.0422
109.1700 6.4305
109.1800 1.6569
109.1900 7.1470
109.2000 9.5798
109.2100 6.4438
109.2200 12.3346
109.2300 8.5895
109.2400 8.5582
109.2500 14.0164
109.2600 7.1136
109.2700 5.3327
109.2800 9.0351
109.2900 11.8684
109.3000 9.5963
109.3100 11.6337
109.3200 7.6800
109.3300 8.9099
109.3400 15.0176
109.3500 7.2572
109.3600 9.3687
109.3700 10.5657
109.3800 17.6041
109.3900 14.4430
109.4000 7.6301
109.4100 11.6321
109.4200 4.3078
109.4300 8.5891
109.4400 9.8897
109.4500 9.3976
109.4600 12.5380
109.4700 12.2002
109.4800 6.7659
109.4900 5.5767
109.5000 3.8118
109.5100 5.6054
109.5200 5.3567
109.5300 5.9050
109.5400 6.3517
109.5500 13.2903
109.5600 3.5231
109.5700 8.7672
109.5800 7.3713
109.5900 6.8454
109.6000 7.4845
109.6100 10.8237
109.6200 13.9644
109.6300 5.5099
109.6400 7.9947
109.6500 9.6451
109.6600 6.1331
109.6700 6.1551
109.6800 8.7444
109.6900 8.2427
109.7000 5.1827
109.7100 3.7872
109.7200 8.8828
109.7300 7.8857
109.7400 8.3940
109.7500 4.4515
109.7600 5.9402
109.7700 4.5955
109.7800 11.9321
109.7900 4.6996
109.8000 7.8365
109.8100 6.6898
109.8200 11.1815
109.8300 6.5340
109.8400 6.5499
109.8500 9.1846
109.8600 7.5135
109.8700 5.4454
109.8800 6.5290
109.8900 8.2237
109.9000 7.4321
109.9100 4.9311
109.9200 3.7232
109.9300 5.4017
109.9400 2.8674
109.9500 7.7989
109.9600 7.4492
109.9700 6.2113
109.9800 9.6668
109.9900 11.0933
110.0000 11.2225
110.0100 5.3414
110.0200 4.6734
110.0300 6.6483
110.0400 5.7926
110.0500 5.7000
110.0600 6.6584
110.0700 8.3736
110.0800 3.3740
110.0900 5.0388
110.1000 5.0953
110.1100 3.4058
110.1200 6.6316
110.1300 3.2702
110.1400 10.3683
110.1500 7.7308
110.1600 14.2256
110.1700 8.2612
110.1800 7.4494
110.1900 7.3863
110.2000 6.8497
110.2100 14.1668
110.2200 4.3277
110.2300 5.1401
110.2400 8.2485
110.2500 8.9771
110.2600 6.1756
110.2700 11.7071
110.2800 5.5529
110.2900 14.3603
110.3000 7.1855
110.3100 14.3535
110.3200 10.2325
110.3300 11.4667
110.3400 6.3535
110.3500 10.8232
110.3600 9.5468
110.3700 7.4596
110.3800 8.2427
110.3900 15.5120
110.4000 6.5623
110.4100 10.9506
110.4200 6.2309
110.4300 10.6899
110.4400 6.2883
110.4500 9.4111
110.4600 8.2562
110.4700 13.4878
110.4800 9.5462
110.4900 7.8780
110.5000 9.2263
110.5100 10.5032
110.5200 14.4701
110.5300 14.7652
110.5400 8.1093
110.5500 9.3645
110.5600 8.5936
110.5700 12.9661
110.5800 8.3831
110.5900 7.4163
110.6000 3.9752
110.6100 10.0782
110.6200 6.5562
110.6300 13.5352
110.6400 6.7068
110.6500 6.2803
110.6600 4.3787
110.6700 6.6996
110.6800 8.2713
110.6900 7.9836
110.7000 7.3238
110.7100 8.6037
110.7200 6.7065
110.7300 7.2345
110.7400 8.1496
110.7500 11.1693
110.7600 13.0109
110.7700 10.8664
110.7800 4.0472
110.7900 6.0206
110.8000 6.9623
110.8100 6.5860
110.8200 8.5789
110.8300 10.1201
110.8400 5.2010
110.8500 5.1434
110.8600 6.5312
110.8700 8.3000
110.8800 7.2069
110.8900 6.2635
110.9000 4.5613
110.9100 6.7757
110.9200 8.1619
110.9300 6.0633
110.9400 6.1573
110.9500 9.2380
110.9600 7.0020
110.9700 10.3361
110.9800 11.2765
110.9900 8.6804
111.0000 12.7333
111.0100 6.4647
111.0200 9.6023
111.0300 3.4884
111.0400 6.5541
111.0500 5.8714
111.0600 8.9412
111.0700 4.9862
111.0800 11.8861
111.0900 5.4259
111.1000 10.9216
111.1100 7.5867
111.1200 7.1826
111.1300 12.3592
111.1400 6.2890
111.1500 6.3713
111.1600 4.2292
111.1700 5.2365
111.1800 5.4031
111.1900 4.8710
111.2000 8.2719
111.2100 7.2505
111.2200 6.7170
111.2300 4.5000
111.2400 4.8801
111.2500 11.3626
111.2600 6.2007
111.2700 5.2445
111.2800 9.8496
111.2900 8.8875
111.3000 8.3578
111.3100 13.3747
111.3200 6.0790
111.3300 6.4673
111.3400 9.3805
111.3500 12.4958
111.3600 8.7681
111.3700 9.2852
111.3800 13.1153
111.3900 10.8708
111.4000 8.8927
111.4100 11.1458
111.4200 8.2857
111.4300 8.3840
111.4400 8.5504
111.4500 17.9463
111.4600 7.7117
111.4700 19.5639
111.4800 7.9150
111.4900 11.8030
111.5000 5.5424
111.5100 8.2621
111.5200 8.0110
111.5300 9.2115
111.5400 5.0499
111.5500 7.3256
111.5600 9.1979
111.5700 8.3449
111.5800 10.9521
111.5900 7.9661
111.6000 3.6952
111.6100 6.3684
111.6200 7.7304
111.6300 8.9135
111.6400 10.4476
111.6500 13.2593
111.6600 7.6652
111.6700 8.0640
111.6800 7.2411
111.6900 6.5880
111.7000 5.7465
111.7100 6.5732
111.7200 9.6693
111.7300 8.4564
111.7400 7.9421
111.7500 8.8723
111.7600 12.2449
111.7700 0.4044
111.7800 5.5718
111.7900 6.2554
111.8000 4.6381
111.8100 9.0359
111.8200 8.1794
111.8300 3.8252
111.8400 10.6639
111.8500 6.7937
111.8600 5.4687
111.8700 8.2393
111.8800 5.2795
111.8900 3.3326
111.9000 9.6014
111.9100 8.5389
111.9200 4.2640
111.9300 2.9961
111.9400 5.2077
111.9500 9.0544
111.9600 5.8830
111.9700 12.8280
111.9800 3.5864
111.9900 10.1828
112.0000 6.6756
112.0100 10.2250
112.0200 8.5747
112.0300 9.0028
112.0400 9.8809
112.0500 4.1399
112.0600 6.2850
112.0700 5.6602
112.0800 8.2112
112.0900 8.2440
112.1000 9.2174
112.1100 10.1020
112.1200 8.9461
112.1300 7.8145
112.1400 5.9800
112.1500 2.7110
112.1600 5.6212
112.1700 7.0032
112.1800 8.7435
112.1900 7.9092
112.2000 10.9059
112.2100 9.0941
112.2200 6.7006
112.2300 8.5192
112.2400 6.1269
112.2500 4.9340
112.2600 3.8367
112.2700 9.7583
112.2800 13.0156
112.2900 8.3342
112.3000 7.2369
112.3100 5.2044
112.3200 5.1612
112.3300 8.1442
112.3400 6.5275
112.3500 8.2708
112.3600 8.9180
112.3700 10.6626
112.3800 7.8500
112.3900 2.8104
112.4000 7.3678
112.4100 6.2131
112.4200 3.3926
112.4300 7.5866
112.4400 5.6173
112.4500 6.4324
112.4600 9.4971
112.4700 6.3379
112.4800 4.4647
112.4900 10.3985
112.5000 14.8924
112.5100 3.6681
112.5200 9.2610
112.5300 5.9750
112.5400 7.3862
112.5500 5.1874
112.5600 4.1550
112.5700 4.7525
112.5800 8.9141
112.5900 2.3358
112.6000 10.1450
112.6100 9.4620
112.6200 18.1464
112.6300 5.7165
112.6400 10.4800
112.6500 4.3415
112.6600 9.7806
112.6700 11.3871
112.6800 8.6152
112.6900 3.4722
112.7000 8.9299
112.7100 11.4375
112.7200 13.6335
112.7300 5.9059
112.7400 13.1106
112.7500 11.0384
112.7600 7.0825
112.7700 8.8369
112.7800 11.0320
112.7900 7.3620
112.8000 3.7288
112.8100 7.0480
112.8200 12.3213
112.8300 9.9140
112.8400 11.3062
112.8500 5.8272
112.8600 6.7848
112.8700 10.8904
112.8800 8.0799
112.8900 6.1516
112.9000 2.9755
112.9100 2.7945
112.9200 10.7247
112.9300 3.2764
112.9400 16.2432
112.9500 6.8356
112.9600 9.3298
112.9700 8.4350
112.9800 7.7608
112.9900 7.5144
113.0000 8.4429
113.0100 4.1884
113.0200 8.2162
113.0300 9.2286
113.0400 10.0344
113.0500 12.2446
113.0600 6.8349
113.0700 9.6001
113.0800 7.4869
113.0900 8.8096
113.1000 9.1327
113.1100 6.2134
113.1200 7.5590
113.1300 8.3074
113.1400 8.1502
113.1500 10.5222
113.1600 10.0484
113.1700 9.8312
113.1800 7.1142
113.1900 7.8703
113.2000 4.5594
113.2100 4.2252
113.2200 6.2299
113.2300 5.2520
113.2400 5.2462
113.2500 5.7763
113.2600 2.2907
113.2700 4.2931
113.2800 4.2779
113.2900 8.4408
113.3000 5.1756
113.3100 5.8699
113.3200 9.2719
113.3300 5.9291
113.3400 10.3264
113.3500 6.0908
113.3600 8.2061
113.3700 8.3115
113.3800 3.7524
113.3900 6.0849
113.4000 6.6594
113.4100 4.5716
113.4200 7.2711
113.4300 7.5124
113.4400 16.5613
113.4500 8.0157
113.4600 7.5501
113.4700 8.1897
113.4800 2.4517
113.4900 5.1293
113.5000 7.3773
113.5100 5.4437
113.5200 3.7768
113.5300 6.1424
113.5400 4.6575
113.5500 10.8293
113.5600 5.1367
113.5700 4.1646
113.5800 8.8025
113.5900 5.3678
113.6000 8.7755
113.6100 4.0109
113.6200 9.1369
113.6300 5.3052
113.6400 9.6068
113.6500 5.9564
113.6600 7.3436
113.6700 11.4874
113.6800 10.8968
113.6900 8.6625
113.7000 15.1000
113.7100 9.3203
113.7200 12.6460
113.7300 9.3098
113.7400 9.6145
113.7500 9.6909
113.7600 9.4536
113.7700 8.5863
113.7800 8.4301
113.7900 2.8935
113.8000 14.1132
113.8100 12.8697
113.8200 9.6434
113.8300 5.2016
113.8400 9.7148
113.8500 9.7874
113.8600 11.1287
113.8700 9.3528
113.8800 10.9923
113.8900 6.9154
113.9000 9.4172
113.9100 6.9567
113.9200 9.8978
113.9300 9.8013
113.9400 7.2549
113.9500 6.3077
113.9600 1.8864
113.9700 11.0633
113.9800 6.8516
113.9900 8.3626
114.0000 8.1915
114.0100 3.9114
114.0200 1.8307
114.0300 7.0414
114.0400 5.6669
114.0500 6.2179
114.0600 4.3997
114.0700 8.3793
114.0800 8.2944
114.0900 4.2244
114.1000 12.3060
114.1100 3.4578
114.1200 12.0256
114.1300 7.2048
114.1400 9.8643
114.1500 5.0731
114.1600 15.5339
114.1700 9.1292
114.1800 10.0634
114.1900 11.5972
114.2000 8.8317
114.2100 3.1439
114.2200 8.4133
114.2300 9.4551
114.2400 7.3186
114.2500 5.8855
114.2600 3.2289
114.2700 7.4128
114.2800 7.1992
114.2900 9.2565
114.3000 9.9156
114.3100 9.5714
114.3200 7.3281
114.3300 7.1952
114.3400 6.9788
114.3500 4.5408
114.3600 8.1496
114.3700 9.7129
114.3800 15.8578
114.3900 4.8231
114.4000 8.7077
114.4100 3.4831
114.4200 11.0807
114.4300 4.5418
114.4400 10.6189
114.4500 3.0065
114.4600 6.4371
114.4700 5.3590
114.4800 5.2206
114.4900 8.2598
114.5000 7.6550
114.5100 9.7722
114.5200 4.0099
114.5300 10.2902
114.5400 7.1307
114.5500 10.0796
114.5600 13.1872
114.5700 10.8390
114.5800 13.3507
114.5900 14.0271
114.6000 9.2898
114.6100 13.1974
114.6200 6.1009
114.6300 7.2042
114.6400 7.4412
114.6500 4.7410
114.6600 3.4727
114.6700 4.7667
114.6800 6.9939
114.6900 6.9946
114.7000 12.8739
114.7100 10.6105
114.7200 10.0903
114.7300 7.4045
114.7400 6.4829
114.7500 9.3812
114.7600 5.6983
114.7700 7.5278
114.7800 9.4114
114.7900 7.7244
114.8000 6.4238
114.8100 7.1263
114.8200 9.4713
114.8300 11.4524
114.8400 9.1820
114.8500 4.3537
114.8600 6.6960
114.8700 10.3718
114.8800 6.8115
114.8900 7.1896
114.9000 5.8387
114.9100 6.0903
114.9200 6.1901
114.9300 8.8355
114.9400 5.6685
114.9500 4.8980
114.9600 6.4082
114.9700 6.4211
114.9800 7.0490
114.9900 6.4477
115.0000 8.7560
115.0100 7.0286
115.0200 6.8001
115.0300 12.5461
115.0400 7.7491
115.0500 12.4098
115.0600 9.5360
115.0700 6.5786
115.0800 6.3834
115.0900 8.0536
115.1000 9.8099
115.1100 11.8581
115.1200 4.9022
115.1300 6.8433
115.1400 6.0406
115.1500 3.4141
115.1600 7.3095
115.1700 8.6486
115.1800 7.5208
115.1900 5.9356
115.2000 4.1742
115.2100 3.6360
115.2200 5.6219
115.2300 6.4174
115.2400 5.4766
115.2500 5.0438
115.2600 5.1982
115.2700 11.5005
115.2800 6.8598
115.2900 6.5307
115.3000 5.6518
115.3100 9.3848
115.3200 6.4482
115.3300 8.4738
115.3400 8.0900
115.3500 3.1203
115.3600 8.1686
115.3700 5.9761
115.3800 6.1530
115.3900 5.8645
115.4000 13.2094
115.4100 4.5602
115.4200 7.7437
115.4300 6.9402
115.4400 6.1636
115.4500 6.3572
115.4600 4.9056
115.4700 4.9525
115.4800 9.5972
115.4900 2.8728
115.5000 9.5608
115.5100 11.4521
115.5200 12.2606
115.5300 7.5786
115.5400 8.2329
115.5500 8.4103
115.5600 9.4993
115.5700 6.8940
115.5800 11.0165
115.5900 7.2531
115.6000 6.4406
115.6100 8.8381
115.6200 8.5461
115.6300 8.7577
115.6400 6.9398
115.6500 5.5824
115.6600 13.5589
115.6700 7.0817
115.6800 8.1255
115.6900 8.4985
115.7000 7.2378
115.7100 7.7155
115.7200 7.7740
115.7300 3.1168
115.7400 7.5691
115.7500 7.8127
115.7600 7.0362
115.7700 10.0604
115.7800 6.2974
115.7900 5.5197
115.8000 7.1658
115.8100 8.4346
115.8200 10.1404
115.8300 6.9082
115.8400 6.1746
115.8500 8.4805
115.8600 11.2033
115.8700 6.7581
115.8800 6.3902
115.8900 4.8250
115.9000 3.1444
115.9100 10.4308
115.9200 10.4325
115.9300 7.9437
115.9400 4.1795
115.9500 7.6685
115.9600 7.2620
115.9700 6.9934
115.9800 4.9363
115.9900 6.4786
116.0000 5.2156
116.0100 11.3871
116.0200 6.6872
116.0300 12.3485
116.0400 7.8954
116.0500 4.4518
116.0600 5.2047
116.0700 6.7376
116.0800 6.2141
116.0900 10.2245
116.1000 6.9680
116.1100 8.3998
116.1200 7.7014
116.1300 9.0291
116.1400 6.7464
116.1500 4.6289
116.1600 4.5145
116.1700 7.8561
116.1800 4.4360
116.1900 7.6479
116.2000 9.6003
116.2100 6.3352
116.2200 7.1932
116.2300 6.0144
116.2400 12.1168
116.2500 6.9533
116.2600 8.5764
116.2700 6.9137
116.2800 6.9163
116.2900 7.8873
116.3000 7.2297
116.3100 9.7130
116.3200 11.3090
116.3300 4.4818
116.3400 8.7694
116.3500 5.1219
116.3600 14.4625
116.3700 10.9230
116.3800 9.2784
116.3900 10.6730
116.4000 11.1120
116.4100 9.3654
116.4200 6.9133
116.4300 9.3846
116.4400 10.0137
116.4500 7.8526
116.4600 8.8536
116.4700 8.9265
116.4800 8.1178
116.4900 7.8767
116.5000 13.3788
116.5100 9.6920
116.5200 6.0899
116.5300 8.2895
116.5400 7.6379
116.5500 14.1321
116.5600 12.8447
116.5700 17.9538
116.5800 8.3634
116.5900 10.9132
116.6000 12.7810
116.6100 9.4684
116.6200 11.3697
116.6300 8.4800
116.6400 11.3091
116.6500 15.4909
116.6600 5.6838
116.6700 11.7574
116.6800 10.9740
116.6900 15.4364
116.7000 18.5038
116.7100 15.7729
116.7200 20.1859
116.7300 13.6231
116.7400 18.3252
116.7500 14.1330
116.7600 24.2079
116.7700 20.4061
116.7800 15.8502
116.7900 18.8534
116.8000 25.8540
116.8100 25.7812
116.8200 16.8184
116.8300 17.4785
116.8400 26.2045
116.8500 22.3091
116.8600 26.8558
116.8700 21.1969
116.8800 25.8825
116.8900 21.5229
116.9000 16.7657
116.9100 19.9331
116.9200 19.2812
116.9300 19.5707
116.9400 19.9210
116.9500 20.6929
116.9600 30.4608
116.9700 24.6233
116.9800 27.4703
116.9900 19.2275
117.0000 15.9798
117.0100 20.1273
117.0200 14.3626
117.0300 12.0397
117.0400 16.1125
117.0500 14.5830
117.0600 9.8091
117.0700 24.5960
117.0800 16.3712
117.0900 15.9952
117.1000 11.7110
117.1100 11.5119
117.1200 8.5533
117.1300 6.5701
117.1400 13.0248
117.1500 11.5162
117.1600 11.9838
117.1700 7.1103
117.1800 12.4590
117.1900 5.3164
117.2000 9.7194
117.2100 11.8431
117.2200 12.9467
117.2300 6.1804
117.2400 12.4766
117.2500 10.5430
117.2600 8.0489
117.2700 5.2474
117.2800 5.5184
117.2900 9.0758
117.3000 5.0117
117.3100 8.7290
117.3200 7.2532
117.3300 5.5194
117.3400 4.2081
117.3500 2.8954
117.3600 17.1432
117.3700 5.5809
117.3800 6.0138
117.3900 11.0335
117.4000 10.6977
117.4100 10.5623
117.4200 5.0635
117.4300 6.7920
117.4400 9.4156
117.4500 7.4538
117.4600 6.6937
117.4700 8.4890
117.4800 5.4625
117.4900 6.1914
117.5000 8.4703
117.5100 4.8805
117.5200 6.1985
117.5300 9.0447
117.5400 8.0359
117.5500 9.8658
117.5600 7.3867
117.5700 9.9074
117.5800 4.2299
117.5900 4.3529
117.6000 10.5554
117.6100 3.4779
117.6200 9.3715
117.6300 6.1213
117.6400 8.3135
117.6500 9.2484
117.6600 6.1311
117.6700 6.2871
117.6800 7.5652
117.6900 11.5739
117.7000 7.2828
117.7100 8.1672
117.7200 6.0265
117.7300 8.5676
117.7400 5.8749
117.7500 6.6404
117.7600 6.9540
117.7700 7.5647
117.7800 8.1050
117.7900 5.3519
117.8000 9.5607
117.8100 11.5286
117.8200 7.5312
117.8300 6.9418
117.8400 7.9015
117.8500 3.0548
117.8600 3.6680
117.8700 5.8089
117.8800 3.3450
117.8900 9.2941
117.9000 7.6468
117.9100 6.1637
117.9200 4.5653
117.9300 8.2109
117.9400 9.6642
117.9500 6.9831
117.9600 3.6081
117.9700 8.3283
117.9800 6.9397
117.9900 5.9773
118.0000 9.6066
118.0100 7.9572
118.0200 11.1207
118.0300 10.0618
118.0400 9.3171
118.0500 8.0632
118.0600 3.0704
118.0700 7.1330
118.0800 5.3482
118.0900 7.6152
118.1000 9.8759
118.1100 4.5456
118.1200 7.3142
118.1300 2.5298
118.1400 8.1537
118.1500 6.8536
118.1600 2.7732
118.1700 7.8057
118.1800 6.5849
118.1900 7.4353
118.2000 10.5007
118.2100 7.9143
118.2200 9.0269
118.2300 7.3575
118.2400 12.7002
118.2500 5.9829
118.2600 7.8057
118.2700 8.3499
118.2800 7.4634
118.2900 6.6747
118.3000 10.0868
118.3100 5.1250
118.3200 11.0810
118.3300 5.8498
118.3400 8.3272
118.3500 4.7700
118.3600 7.6258
118.3700 5.0954
118.3800 6.6444
118.3900 5.8685
118.4000 7.0489
118.4100 10.0619
118.4200 7.2737
118.4300 10.2022
118.4400 10.5361
118.4500 10.4514
118.4600 10.3932
118.4700 6.3142
118.4800 8.6561
118.4900 2.2788
118.5000 8.5883
118.5100 6.6489
118.5200 7.0669
118.5300 7.0581
118.5400 3.9815
118.5500 15.5291
118.5600 8.9390
118.5700 6.2177
118.5800 7.4722
118.5900 11.6387
118.6000 9.4666
118.6100 9.9195
118.6200 5.9711
118.6300 7.1067
118.6400 9.7464
118.6500 5.2739
118.6600 7.2992
118.6700 13.4961
118.6800 7.4350
118.6900 5.7408
118.7000 7.9701
118.7100 4.1532
118.7200 8.5084
118.7300 6.8930
118.7400 9.8959
118.7500 16.1933
118.7600 8.6373
118.7700 9.1639
118.7800 4.0264
118.7900 5.7711
118.8000 6.3190
118.8100 7.4973
118.8200 5.7332
118.8300 3.9502
118.8400 4.1332
118.8500 8.0644
118.8600 5.7191
118.8700 10.0334
118.8800 7.1901
118.8900 7.4955
118.9000 13.0947
118.9100 7.2802
118.9200 15.8390
118.9300 7.0653
118.9400 12.4232
118.9500 9.5627
118.9600 7.3394
118.9700 10.9661
118.9800 5.1708
118.9900 5.4503
119.0000 10.3158
119.0100 8.3443
119.0200 4.7431
119.0300 4.8028
119.0400 8.0917
119.0500 6.5979
119.0600 6.9964
119.0700 7.6035
119.0800 11.1188
119.0900 7.2505
119.1000 5.1346
119.1100 8.3068
119.1200 6.3352
119.1300 7.3728
119.1400 4.7591
119.1500 6.2478
119.1600 6.3252
119.1700 11.5955
119.1800 13.3815
119.1900 8.9697
119.2000 13.0601
119.2100 4.6637
119.2200 10.2398
119.2300 6.5402
119.2400 12.4972
119.2500 8.8422
119.2600 10.6373
119.2700 12.0953
119.2800 10.7269
119.2900 10.1830
119.3000 12.8420
119.3100 15.1419
119.3200 15.0333
119.3300 8.5774
119.3400 8.4874
119.3500 8.4275
119.3600 5.6546
119.3700 8.6617
119.3800 3.9592
119.3900 4.2142
119.4000 7.0844
119.4100 3.0229
119.4200 7.0839
119.4300 5.3735
119.4400 8.5830
119.4500 7.9149
119.4600 6.2390
119.4700 6.4485
119.4800 7.9043
119.4900 5.6299
119.5000 10.4337
119.5100 12.4149
119.5200 14.0582
119.5300 10.3791
119.5400 5.3382
119.5500 12.4446
119.5600 9.8677
119.5700 11.1650
119.5800 7.8505
119.5900 16.5836
119.6000 9.5143
119.6100 6.5479
119.6200 9.2837
119.6300 5.9226
119.6400 7.3637
119.6500 5.6460
119.6600 7.3473
119.6700 7.9591
119.6800 8.3659
119.6900 9.4740
119.7000 6.8368
119.7100 3.3255
119.7200 3.2347
119.7300 2.7768
119.7400 7.2666
119.7500 3.9718
119.7600 6.7736
119.7700 3.3067
119.7800 2.2953
119.7900 6.9022
119.8000 10.0093
119.8100 5.2228
119.8200 7.0280
119.8300 7.4376
119.8400 12.4695
119.8500 8.2541
119.8600 6.5964
119.8700 3.6802
119.8800 6.3043
119.8900 13.0433
119.9000 6.3070
119.9100 4.5094
119.9200 6.2932
119.9300 6.4520
119.9400 8.9581
119.9500 2.6935
119.9600 9.7453
119.9700 11.4916
119.9800 10.7184
119.9900 8.3198
