#Collected Data-7
#Intensity_unit=counts
#Attenuator_coefficient=1.000000
40.0000 21.4563
40.0100 18.3129
40.0200 17.5600
40.0300 16.4494
40.0400 23.7682
40.0500 16.9844
40.0600 24.1899
40.0700 17.2716
40.0800 19.8612
40.0900 21.8047
40.1000 21.9213
40.1100 21.6550
40.1200 19.3597
40.1300 17.1114
40.1400 18.3337
40.1500 14.0764
40.1600 15.1451
40.1700 12.2134
40.1800 19.2000
40.1900 16.0320
40.2000 16.5422
40.2100 16.1705
40.2200 16.2530
40.2300 18.1022
40.2400 17.9273
40.2500 17.8986
40.2600 19.3517
40.2700 16.8910
40.2800 21.0327
40.2900 21.7295
40.3000 17.5499
40.3100 19.8304
40.3200 15.2897
40.3300 25.7617
40.3400 19.9010
40.3500 19.3220
40.3600 15.3426
40.3700 21.6205
40.3800 16.9212
40.3900 14.5796
40.4000 12.5983
40.4100 10.5109
40.4200 14.7188
40.4300 12.2709
40.4400 12.4054
40.4500 19.7649
40.4600 17.9890
40.4700 19.6051
40.4800 14.5765
40.4900 30.1619
40.5000 13.0288
40.5100 14.4675
40.5200 15.2298
40.5300 11.7196
40.5400 12.4205
40.5500 21.2056
40.5600 11.8831
40.5700 14.9830
40.5800 16.6418
40.5900 22.8031
40.6000 17.6081
40.6100 10.5830
40.6200 15.8482
40.6300 19.2573
40.6400 16.8611
40.6500 23.1528
40.6600 18.2801
40.6700 10.1235
40.6800 16.1417
40.6900 17.9583
40.7000 19.6183
40.7100 10.9671
40.7200 11.1225
40.7300 14.5633
40.7400 12.2820
40.7500 12.3374
40.7600 16.0699
40.7700 6.7198
40.7800 13.7466
40.7900 28.8142
40.8000 18.7002
40.8100 12.7716
40.8200 18.1121
40.8300 15.7319
40.8400 16.3018
40.8500 19.9640
40.8600 15.6790
40.8700 16.2426
40.8800 21.2238
40.8900 26.1065
40.9000 19.7370
40.9100 15.2605
40.9200 14.7753
40.9300 11.7156
40.9400 12.7283
40.9500 12.3366
40.9600 14.8290
40.9700 19.9901
40.9800 16.6809
40.9900 18.9658
41.0000 14.5940
41.0100 15.4529
41.0200 24.1400
41.0300 17.6381
41.0400 12.9903
41.0500 17.4096
41.0600 14.5081
41.0700 25.5517
41.0800 18.6638
41.0900 12.1850
41.1000 18.6234
41.1100 15.7701
41.1200 19.7842
41.1300 14.9017
41.1400 14.3567
41.1500 17.4146
41.1600 22.2668
41.1700 12.7936
41.1800 12.5792
41.1900 12.0474
41.2000 16.8963
41.2100 22.9955
41.2200 11.7730
41.2300 11.7392
41.2400 23.3362
41.2500 23.6517
41.2600 19.8840
41.2700 16.2925
41.2800 14.7267
41.2900 13.3574
41.3000 9.2628
41.3100 22.2833
41.3200 14.8925
41.3300 13.2231
41.3400 15.3926
41.3500 18.8051
41.3600 23.8230
41.3700 15.9123
41.3800 18.2448
41.3900 21.0254
41.4000 12.0565
41.4100 15.5906
41.4200 17.1314
41.4300 16.4662
41.4400 25.7482
41.4500 12.5465
41.4600 13.1728
41.4700 17.8068
41.4800 12.5208
41.4900 11.6840
41.5000 11.9252
41.5100 21.1003
41.5200 12.3626
41.5300 11.6894
41.5400 16.0091
41.5500 24.0580
41.5600 17.9681
41.5700 26.7763
41.5800 21.0113
41.5900 21.1153
41.6000 20.0689
41.6100 13.3688
41.6200 19.2485
41.6300 14.2872
41.6400 25.0420
41.6500 21.7595
41.6600 27.3540
41.6700 21.3275
41.6800 24.9277
41.6900 16.7960
41.7000 19.6146
41.7100 16.6293
41.7200 13.2857
41.7300 12.4202
41.7400 18.5901
41.7500 15.2844
41.7600 18.1953
41.7700 12.6926
41.7800 21.9566
41.7900 18.2817
41.8000 16.6692
41.8100 16.6049
41.8200 20.8510
41.8300 12.9829
41.8400 20.9122
41.8500 13.2279
41.8600 14.0164
41.8700 16.4287
41.8800 16.4377
41.8900 13.6232
41.9000 17.7160
41.9100 16.2828
41.9200 11.0250
41.9300 14.3714
41.9400 18.0982
41.9500 20.5811
41.9600 10.5455
41.9700 9.4721
41.9800 18.8497
41.9900 16.3748
42.0000 18.0884
42.0100 15.5183
42.0200 26.8615
42.0300 22.6691
42.0400 21.6808
42.0500 15.1087
42.0600 17.1123
42.0700 20.5045
42.0800 17.6713
42.0900 13.6817
42.1000 21.3375
42.1100 13.9273
42.1200 18.1476
42.1300 22.3123
42.1400 16.5963
42.1500 12.8409
42.1600 24.1388
42.1700 22.0777
42.1800 15.0962
42.1900 20.0776
42.2000 15.1852
42.2100 16.7403
42.2200 16.8892
42.2300 19.7809
42.2400 20.2014
42.2500 9.1150
42.2600 21.6718
42.2700 20.0792
42.2800 17.0442
42.2900 12.6009
42.3000 17.3788
42.3100 16.9713
42.3200 19.6928
42.3300 20.1956
42.3400 16.6736
42.3500 13.8721
42.3600 11.6816
42.3700 15.8202
42.3800 21.5522
42.3900 19.5579
42.4000 15.1178
42.4100 17.9886
42.4200 14.4209
42.4300 9.9214
42.4400 19.0123
42.4500 19.4710
42.4600 18.4003
42.4700 19.6354
42.4800 15.0504
42.4900 26.3325
42.5000 16.5683
42.5100 16.2927
42.5200 21.1747
42.5300 26.4681
42.5400 18.7274
42.5500 18.1817
42.5600 20.8806
42.5700 13.3768
42.5800 18.9049
42.5900 18.7712
42.6000 13.2161
42.6100 11.4080
42.6200 16.9688
42.6300 17.1349
42.6400 15.2746
42.6500 23.5317
42.6600 18.3637
42.6700 13.8005
42.6800 11.1909
42.6900 16.2596
42.7000 20.9036
42.7100 23.1970
42.7200 12.4947
42.7300 14.0175
42.7400 17.8830
42.7500 20.3193
42.7600 15.9348
42.7700 6.9705
42.7800 13.4078
42.7900 18.9262
42.8000 16.6850
42.8100 16.8122
42.8200 18.0902
42.8300 14.6930
42.8400 11.1785
42.8500 12.0408
42.8600 14.2831
42.8700 13.0260
42.8800 13.8683
42.8900 11.4446
42.9000 15.0034
42.9100 16.3385
42.9200 25.2154
42.9300 15.1913
42.9400 19.9782
42.9500 15.1962
42.9600 16.7770
42.9700 15.4859
42.9800 11.0994
42.9900 16.8671
43.0000 13.5699
43.0100 17.2045
43.0200 17.5033
43.0300 15.2186
43.0400 26.7129
43.0500 14.7874
43.0600 26.2713
43.0700 13.6115
43.0800 15.0819
43.0900 15.7814
43.1000 19.8019
43.1100 11.3648
43.1200 20.4990
43.1300 21.1649
43.1400 20.6457
43.1500 14.3251
43.1600 11.6083
43.1700 18.5395
43.1800 19.6371
43.1900 26.5585
43.2000 17.6899
43.2100 13.9128
43.2200 10.3142
43.2300 15.3360
43.2400 19.6526
43.2500 25.3810
43.2600 11.1795
43.2700 18.6929
43.2800 16.1149
43.2900 19.9985
43.3000 17.2035
43.3100 15.3439
43.3200 13.7130
43.3300 21.1328
43.3400 15.5724
43.3500 17.9421
43.3600 13.5402
43.3700 12.0319
43.3800 12.1554
43.3900 13.6250
43.4000 19.8088
43.4100 21.3224
43.4200 14.0404
43.4300 21.7936
43.4400 14.9709
43.4500 17.1708
43.4600 19.8926
43.4700 16.5723
43.4800 20.0916
43.4900 20.1016
43.5000 15.0603
43.5100 14.6002
43.5200 10.3692
43.5300 18.9817
43.5400 26.2265
43.5500 21.9801
43.5600 14.0508
43.5700 14.1741
43.5800 8.9205
43.5900 16.3390
43.6000 17.0493
43.6100 13.4899
43.6200 15.5577
43.6300 10.3667
43.6400 12.4044
43.6500 14.2238
43.6600 24.7347
43.6700 10.7143
43.6800 16.5135
43.6900 15.7824
43.7000 14.0312
43.7100 11.5297
43.7200 17.8542
43.7300 14.2212
43.7400 19.1153
43.7500 11.3698
43.7600 25.3480
43.7700 16.2842
43.7800 15.5860
43.7900 11.7114
43.8000 16.3214
43.8100 14.7365
43.8200 18.3542
43.8300 21.1096
43.8400 15.7432
43.8500 9.6461
43.8600 22.3264
43.8700 19.0052
43.8800 22.0015
43.8900 14.0029
43.9000 16.9292
43.9100 18.2617
43.9200 18.9892
43.9300 16.1672
43.9400 16.7437
43.9500 19.2774
43.9600 14.9431
43.9700 15.0330
43.9800 9.6807
43.9900 11.6716
44.0000 21.6992
44.0100 15.7929
44.0200 16.9544
44.0300 11.8505
44.0400 15.4487
44.0500 17.6273
44.0600 20.4277
44.0700 24.0581
44.0800 20.5359
44.0900 21.0987
44.1000 17.2356
44.1100 22.4963
44.1200 20.0967
44.1300 23.6271
44.1400 20.7217
44.1500 18.5059
44.1600 27.9841
44.1700 22.2895
44.1800 25.2400
44.1900 32.8182
44.2000 31.8700
44.2100 37.9561
44.2200 28.9835
44.2300 30.9139
44.2400 33.8783
44.2500 33.2550
44.2600 41.0459
44.2700 34.9411
44.2800 39.3212
44.2900 36.8083
44.3000 37.8658
44.3100 48.7105
44.3200 49.8548
44.3300 54.9921
44.3400 62.0536
44.3500 65.5724
44.3600 102.9337
44.3700 96.5316
44.3800 120.7869
44.3900 158.9111
44.4000 201.4812
44.4100 232.9578
44.4200 287.5522
44.4300 348.5644
44.4400 377.9503
44.4500 506.7820
44.4600 556.5588
44.4700 669.4899
44.4800 707.6628
44.4900 760.7880
44.5000 866.3818
44.5100 889.0396
44.5200 915.8279
44.5300 896.7422
44.5400 873.2139
44.5500 846.4179
44.5600 836.3561
44.5700 772.8732
44.5800 729.9175
44.5900 642.4152
44.6000 507.3801
44.6100 456.5685
44.6200 394.6257
44.6300 312.0446
44.6400 244.9735
44.6500 197.4722
44.6600 188.0529
44.6700 147.4906
44.6800 129.5509
44.6900 103.8372
44.7000 98.5819
44.7100 83.4777
44.7200 60.9381
44.7300 51.1963
44.7400 53.3215
44.7500 49.0103
44.7600 34.5446
44.7700 33.5690
44.7800 38.9583
44.7900 23.6746
44.8000 35.3767
44.8100 20.6880
44.8200 29.8090
44.8300 16.8746
44.8400 20.9521
44.8500 29.5729
44.8600 27.6316
44.8700 15.5375
44.8800 22.3078
44.8900 18.1119
44.9000 20.9794
44.9100 29.4105
44.9200 22.1633
44.9300 19.7561
44.9400 23.5757
44.9500 13.4782
44.9600 18.6125
44.9700 17.4459
44.9800 11.8053
44.9900 21.7693
45.0000 24.6528
45.0100 15.4207
45.0200 17.8478
45.0300 17.6311
45.0400 14.1621
45.0500 14.5894
45.0600 18.6439
45.0700 20.0926
45.0800 16.2669
45.0900 21.3275
45.1000 19.9612
45.1100 7.3954
45.1200 19.3059
45.1300 14.1992
45.1400 12.1454
45.1500 15.9172
45.1600 26.2292
45.1700 21.0347
45.1800 19.2970
45.1900 15.1133
45.2000 13.4719
45.2100 15.4012
45.2200 16.9150
45.2300 20.3791
45.2400 19.0541
45.2500 14.0112
45.2600 25.0917
45.2700 25.9737
45.2800 17.9712
45.2900 13.8798
45.3000 15.4433
45.3100 18.1463
45.3200 20.1562
45.3300 10.3974
45.3400 23.2287
45.3500 22.5021
45.3600 20.6561
45.3700 19.1695
45.3800 17.8356
45.3900 15.7683
45.4000 12.7081
45.4100 18.9174
45.4200 16.7457
45.4300 21.4801
45.4400 14.5228
45.4500 17.8744
45.4600 11.8108
45.4700 16.1191
45.4800 13.5228
45.4900 17.3022
45.5000 16.6300
45.5100 15.0139
45.5200 16.9423
45.5300 9.3713
45.5400 16.2525
45.5500 19.2181
45.5600 15.6974
45.5700 23.8583
45.5800 16.9924
45.5900 13.1121
45.6000 16.1672
45.6100 12.9953
45.6200 15.7263
45.6300 15.9782
45.6400 18.3243
45.6500 15.9634
45.6600 13.8270
45.6700 13.7326
45.6800 10.4855
45.6900 12.4571
45.7000 11.0212
45.7100 16.9005
45.7200 15.5732
45.7300 14.5646
45.7400 20.1087
45.7500 18.7298
45.7600 15.4008
45.7700 14.5828
45.7800 6.9383
45.7900 21.1001
45.8000 15.2989
45.8100 8.7779
45.8200 12.4334
45.8300 14.9966
45.8400 18.1471
45.8500 14.6528
45.8600 15.7396
45.8700 22.5074
45.8800 20.7123
45.8900 18.4707
45.9000 18.0704
45.9100 11.6112
45.9200 13.8293
45.9300 15.2355
45.9400 16.6107
45.9500 18.6587
45.9600 19.4005
45.9700 15.0491
45.9800 17.5786
45.9900 11.3318
46.0000 12.9607
46.0100 18.5598
46.0200 14.6997
46.0300 15.4056
46.0400 15.7215
46.0500 25.0927
46.0600 20.8310
46.0700 17.9805
46.0800 11.3479
46.0900 17.7555
46.1000 18.4778
46.1100 14.4201
46.1200 17.2504
46.1300 16.1102
46.1400 14.6496
46.1500 13.6679
46.1600 20.1909
46.1700 13.1739
46.1800 16.1051
46.1900 7.5708
46.2000 12.6124
46.2100 17.2930
46.2200 11.9783
46.2300 16.0157
46.2400 20.0086
46.2500 17.8768
46.2600 18.9812
46.2700 10.4708
46.2800 23.0507
46.2900 13.1526
46.3000 15.1830
46.3100 15.1475
46.3200 20.4338
46.3300 13.2143
46.3400 13.9067
46.3500 12.0357
46.3600 12.9434
46.3700 19.3616
46.3800 14.7445
46.3900 15.0333
46.4000 18.4866
46.4100 12.7015
46.4200 16.7203
46.4300 24.2704
46.4400 18.9357
46.4500 12.4695
46.4600 15.4024
46.4700 13.3071
46.4800 22.7651
46.4900 15.3109
46.5000 20.7741
46.5100 16.9702
46.5200 12.7171
46.5300 15.1095
46.5400 21.0389
46.5500 14.4564
46.5600 12.9864
46.5700 9.1796
46.5800 8.2667
46.5900 15.2549
46.6000 10.3629
46.6100 9.4015
46.6200 17.5078
46.6300 14.6171
46.6400 17.0304
46.6500 7.8956
46.6600 12.8025
46.6700 12.5956
46.6800 12.1458
46.6900 16.3742
46.7000 12.6676
46.7100 10.6740
46.7200 12.0549
46.7300 13.5371
46.7400 9.9261
46.7500 3.6330
46.7600 9.0449
46.7700 15.0322
46.7800 17.6104
46.7900 11.3008
46.8000 15.1022
46.8100 16.0503
46.8200 13.4666
46.8300 13.4584
46.8400 20.0421
46.8500 17.4300
46.8600 22.2862
46.8700 12.7152
46.8800 25.5928
46.8900 15.3076
46.9000 22.0298
46.9100 15.5530
46.9200 23.0717
46.9300 10.7014
46.9400 20.4725
46.9500 16.2548
46.9600 19.9808
46.9700 18.2174
46.9800 13.0941
46.9900 21.9113
47.0000 13.8003
47.0100 11.9671
47.0200 9.6884
47.0300 16.8680
47.0400 13.9723
47.0500 23.1047
47.0600 15.2608
47.0700 16.6316
47.0800 13.3308
47.0900 16.4825
47.1000 14.2319
47.1100 11.8159
47.1200 13.9345
47.1300 19.8018
47.1400 19.8657
47.1500 14.7116
47.1600 16.8965
47.1700 12.1441
47.1800 22.0647
47.1900 13.2240
47.2000 23.8269
47.2100 21.3412
47.2200 13.7013
47.2300 18.8832
47.2400 11.0349
47.2500 13.5332
47.2600 20.7120
47.2700 26.3816
47.2800 13.8259
47.2900 13.0133
47.3000 14.8686
47.3100 11.2049
47.3200 11.1661
47.3300 10.1252
47.3400 12.2977
47.3500 12.8558
47.3600 11.5537
47.3700 19.3336
47.3800 18.4500
47.3900 14.5947
47.4000 11.9476
47.4100 16.3383
47.4200 16.5250
47.4300 11.1162
47.4400 14.3867
47.4500 17.6245
47.4600 11.8217
47.4700 25.1115
47.4800 19.2693
47.4900 10.1982
47.5000 10.8406
47.5100 13.2772
47.5200 19.8083
47.5300 16.6322
47.5400 21.5673
47.5500 17.0351
47.5600 15.1137
47.5700 21.3732
47.5800 18.0924
47.5900 16.8338
47.6000 20.8745
47.6100 22.6617
47.6200 23.8876
47.6300 14.9986
47.6400 13.7123
47.6500 21.1920
47.6600 19.9509
47.6700 16.3024
47.6800 11.7507
47.6900 12.5195
47.7000 13.4205
47.7100 16.0997
47.7200 13.1348
47.7300 21.0484
47.7400 19.7579
47.7500 23.1006
47.7600 17.1574
47.7700 24.4831
47.7800 14.3170
47.7900 15.4678
47.8000 14.3405
47.8100 12.4090
47.8200 13.2143
47.8300 13.9105
47.8400 13.1396
47.8500 15.4776
47.8600 18.6528
47.8700 14.0818
47.8800 18.0035
47.8900 10.8500
47.9000 14.8320
47.9100 20.0605
47.9200 8.2725
47.9300 17.6603
47.9400 8.7760
47.9500 17.2295
47.9600 16.1142
47.9700 14.3664
47.9800 18.4316
47.9900 6.4487
48.0000 13.9203
48.0100 14.4978
48.0200 18.8703
48.0300 20.2837
48.0400 17.3290
48.0500 11.3107
48.0600 13.2707
48.0700 14.6875
48.0800 18.7357
48.0900 16.7030
48.1000 19.3936
48.1100 27.6584
48.1200 15.1820
48.1300 15.7152
48.1400 11.4940
48.1500 15.0857
48.1600 23.2553
48.1700 15.3446
48.1800 17.4305
48.1900 13.3558
48.2000 18.9641
48.2100 15.2741
48.2200 10.3579
48.2300 15.3017
48.2400 12.9246
48.2500 14.8235
48.2600 17.2891
48.2700 16.9920
48.2800 14.9845
48.2900 15.2090
48.3000 15.6946
48.3100 9.5617
48.3200 19.4240
48.3300 25.8899
48.3400 23.3693
48.3500 17.3806
48.3600 15.7226
48.3700 14.3232
48.3800 8.7114
48.3900 12.2301
48.4000 16.8827
48.4100 19.4099
48.4200 11.1291
48.4300 14.4964
48.4400 11.9994
48.4500 13.7609
48.4600 21.1670
48.4700 19.0166
48.4800 14.7357
48.4900 10.0910
48.5000 15.6873
48.5100 15.2068
48.5200 14.8136
48.5300 15.9438
48.5400 13.7389
48.5500 19.3650
48.5600 13.2786
48.5700 16.5639
48.5800 14.2053
48.5900 17.8271
48.6000 20.6425
48.6100 17.1243
48.6200 24.7623
48.6300 14.0635
48.6400 31.6873
48.6500 15.1299
48.6600 20.6349
48.6700 16.2236
48.6800 16.3073
48.6900 18.5726
48.7000 15.1960
48.7100 16.1701
48.7200 14.5641
48.7300 18.1779
48.7400 17.8265
48.7500 12.4897
48.7600 11.9815
48.7700 18.7564
48.7800 17.2158
48.7900 14.2760
48.8000 17.8359
48.8100 23.0266
48.8200 11.4552
48.8300 13.5675
48.8400 12.6513
48.8500 12.7498
48.8600 12.3538
48.8700 15.5103
48.8800 17.7529
48.8900 16.2549
48.9000 14.9083
48.9100 18.1100
48.9200 13.1441
48.9300 17.5954
48.9400 12.0425
48.9500 17.0985
48.9600 14.9131
48.9700 12.5211
48.9800 19.4621
48.9900 15.1961
49.0000 14.3458
49.0100 13.1855
49.0200 17.3712
49.0300 21.1929
49.0400 13.3790
49.0500 16.6961
49.0600 15.1339
49.0700 11.1998
49.0800 12.8136
49.0900 18.8307
49.1000 15.6041
49.1100 10.0549
49.1200 13.6289
49.1300 13.7051
49.1400 19.3828
49.1500 18.3546
49.1600 6.9392
49.1700 12.2676
49.1800 12.2030
49.1900 15.7060
49.2000 17.4083
49.2100 11.8880
49.2200 16.7439
49.2300 12.2158
49.2400 18.9563
49.2500 11.7575
49.2600 18.6426
49.2700 9.4460
49.2800 16.4905
49.2900 13.0816
49.3000 18.7489
49.3100 12.3562
49.3200 14.0000
49.3300 13.5762
49.3400 19.6706
49.3500 11.1954
49.3600 15.1478
49.3700 12.5486
49.3800 16.8110
49.3900 15.7687
49.4000 10.1357
49.4100 14.4730
49.4200 9.9036
49.4300 11.7268
49.4400 21.1636
49.4500 8.0557
49.4600 14.4165
49.4700 17.3820
49.4800 13.8280
49.4900 14.7783
49.5000 14.1928
49.5100 13.2236
49.5200 13.2083
49.5300 16.9081
49.5400 16.6592
49.5500 13.8312
49.5600 12.3774
49.5700 11.9386
49.5800 11.9251
49.5900 20.2667
49.6000 15.9174
49.6100 14.8575
49.6200 12.3008
49.6300 11.8968
49.6400 18.7474
49.6500 21.4355
49.6600 20.9748
49.6700 7.6188
49.6800 18.5170
49.6900 15.5088
49.7000 17.7258
49.7100 14.7437
49.7200 16.9852
49.7300 17.2729
49.7400 18.5331
49.7500 25.4334
49.7600 19.2802
49.7700 16.6357
49.7800 7.0683
49.7900 18.4304
49.8000 13.6994
49.8100 13.3833
49.8200 13.6498
49.8300 19.2773
49.8400 12.9444
49.8500 19.6199
49.8600 17.0908
49.8700 16.1385
49.8800 20.7249
49.8900 11.9838
49.9000 16.0546
49.9100 12.8962
49.9200 16.3350
49.9300 20.0418
49.9400 15.4504
49.9500 16.6111
49.9600 10.4864
49.9700 13.5446
49.9800 15.2309
49.9900 21.7652
50.0000 7.2947
50.0100 10.7064
50.0200 10.7384
50.0300 18.8282
50.0400 13.7258
50.0500 18.9755
50.0600 17.5523
50.0700 12.3586
50.0800 9.9810
50.0900 15.2569
50.1000 14.8498
50.1100 16.0385
50.1200 19.5607
50.1300 16.8562
50.1400 12.0900
50.1500 10.2412
50.1600 15.1086
50.1700 18.5223
50.1800 17.1943
50.1900 20.2331
50.2000 14.5593
50.2100 13.5192
50.2200 12.5462
50.2300 16.8244
50.2400 8.6111
50.2500 19.3392
50.2600 14.1390
50.2700 14.4341
50.2800 16.9677
50.2900 14.4970
50.3000 16.8592
50.3100 18.5966
50.3200 12.4914
50.3300 19.0080
50.3400 19.3417
50.3500 16.6923
50.3600 13.2829
50.3700 16.8784
50.3800 12.5057
50.3900 21.1407
50.4000 13.5328
50.4100 6.8117
50.4200 16.2823
50.4300 12.4488
50.4400 14.4949
50.4500 13.9885
50.4600 14.7766
50.4700 11.5303
50.4800 13.9121
50.4900 19.0926
50.5000 16.3944
50.5100 13.7090
50.5200 20.7830
50.5300 24.3128
50.5400 8.3957
50.5500 11.6336
50.5600 11.4689
50.5700 17.4404
50.5800 16.2194
50.5900 24.3045
50.6000 17.8280
50.6100 14.2075
50.6200 20.2980
50.6300 7.2533
50.6400 14.2436
50.6500 12.6698
50.6600 19.0458
50.6700 12.2401
50.6800 15.3890
50.6900 9.3261
50.7000 10.1824
50.7100 14.2899
50.7200 15.1012
50.7300 12.6392
50.7400 11.8048
50.7500 15.7276
50.7600 14.2547
50.7700 9.7062
50.7800 11.9622
50.7900 10.7463
50.8000 15.1623
50.8100 21.5638
50.8200 12.5606
50.8300 13.0359
50.8400 11.8455
50.8500 11.9041
50.8600 14.7853
50.8700 16.2070
50.8800 11.4109
50.8900 16.2507
50.9000 21.2237
50.9100 14.3741
50.9200 13.5678
50.9300 14.2578
50.9400 13.9913
50.9500 17.6956
50.9600 10.2976
50.9700 16.6930
50.9800 16.1079
50.9900 14.3177
51.0000 13.0160
51.0100 12.0451
51.0200 16.7785
51.0300 17.0227
51.0400 14.9392
51.0500 16.4263
51.0600 10.7759
51.0700 31.2916
51.0800 19.0043
51.0900 15.2768
51.1000 12.2567
51.1100 9.1770
51.1200 10.8272
51.1300 18.0614
51.1400 20.0211
51.1500 19.7455
51.1600 13.7172
51.1700 13.9019
51.1800 12.4331
51.1900 15.4120
51.2000 14.1694
51.2100 22.0682
51.2200 14.6134
51.2300 12.7188
51.2400 18.5203
51.2500 13.9430
51.2600 12.8248
51.2700 25.1758
51.2800 16.8388
51.2900 12.9390
51.3000 11.5842
51.3100 17.8533
51.3200 19.7637
51.3300 18.7676
51.3400 12.4866
51.3500 14.5102
51.3600 15.7262
51.3700 17.8875
51.3800 14.5361
51.3900 19.8901
51.4000 21.0834
51.4100 21.0405
51.4200 23.2468
51.4300 13.1210
51.4400 13.8131
51.4500 14.1384
51.4600 18.1434
51.4700 19.1697
51.4800 11.2984
51.4900 19.2320
51.5000 10.0456
51.5100 19.4273
51.5200 13.9390
51.5300 21.0426
51.5400 16.6036
51.5500 18.7140
51.5600 18.9429
51.5700 15.7798
51.5800 16.3532
51.5900 8.2678
51.6000 13.2673
51.6100 16.6062
51.6200 16.3236
51.6300 12.7617
51.6400 11.9683
51.6500 15.5108
51.6600 16.8827
51.6700 14.4924
51.6800 7.2426
51.6900 10.4424
51.7000 20.2723
51.7100 12.8552
51.7200 14.2182
51.7300 16.8989
51.7400 12.1441
51.7500 10.8141
51.7600 14.1983
51.7700 16.4591
51.7800 12.7176
51.7900 21.5477
51.8000 14.6359
51.8100 14.3639
51.8200 20.3941
51.8300 18.4594
51.8400 16.3811
51.8500 14.4445
51.8600 13.8244
51.8700 14.6316
51.8800 17.7382
51.8900 14.2204
51.9000 15.8655
51.9100 12.6466
51.9200 17.5152
51.9300 18.5314
51.9400 15.5596
51.9500 17.4344
51.9600 17.6250
51.9700 13.1075
51.9800 16.5851
51.9900 13.0721
52.0000 13.9801
52.0100 18.2542
52.0200 19.7258
52.0300 12.4302
52.0400 22.8099
52.0500 21.3483
52.0600 22.8794
52.0700 13.9885
52.0800 11.3956
52.0900 18.4690
52.1000 18.9955
52.1100 26.5157
52.1200 19.6583
52.1300 18.4092
52.1400 12.2734
52.1500 9.6277
52.1600 13.2234
52.1700 19.5838
52.1800 21.0021
52.1900 16.4063
52.2000 16.7815
52.2100 14.5545
52.2200 15.5519
52.2300 19.7594
52.2400 16.1364
52.2500 19.9429
52.2600 26.8171
52.2700 16.8442
52.2800 12.5149
52.2900 14.4547
52.3000 13.8375
52.3100 16.8557
52.3200 14.3130
52.3300 15.0190
52.3400 14.4971
52.3500 20.6379
52.3600 13.9157
52.3700 17.1134
52.3800 12.9633
52.3900 16.0619
52.4000 11.5838
52.4100 12.7442
52.4200 11.8498
52.4300 16.5005
52.4400 11.0014
52.4500 15.7078
52.4600 14.1668
52.4700 21.1102
52.4800 15.2311
52.4900 17.1921
52.5000 13.1473
52.5100 12.4904
52.5200 16.5674
52.5300 17.7296
52.5400 15.6033
52.5500 12.5993
52.5600 10.5745
52.5700 6.6797
52.5800 8.7863
52.5900 16.6836
52.6000 16.9223
52.6100 16.7918
52.6200 17.8398
52.6300 11.6721
52.6400 17.7555
52.6500 18.2571
52.6600 7.5263
52.6700 14.4266
52.6800 12.6901
52.6900 15.8461
52.7000 16.3331
52.7100 10.7311
52.7200 16.3572
52.7300 14.1411
52.7400 18.1258
52.7500 23.4194
52.7600 25.4209
52.7700 10.4898
52.7800 14.6201
52.7900 19.7514
52.8000 18.1984
52.8100 15.1033
52.8200 10.9834
52.8300 12.6398
52.8400 12.7895
52.8500 24.3536
52.8600 19.5839
52.8700 17.3643
52.8800 10.5438
52.8900 16.7779
52.9000 10.1050
52.9100 18.2580
52.9200 16.4507
52.9300 18.5968
52.9400 15.4751
52.9500 7.8732
52.9600 10.4818
52.9700 14.3610
52.9800 20.4914
52.9900 24.6697
53.0000 13.3641
53.0100 17.7325
53.0200 10.5157
53.0300 17.7449
53.0400 14.6822
53.0500 13.6689
53.0600 14.9507
53.0700 12.8270
53.0800 5.7139
53.0900 10.8907
53.1000 18.2336
53.1100 16.9468
53.1200 12.9028
53.1300 19.6143
53.1400 20.4915
53.1500 12.5073
53.1600 16.4947
53.1700 14.2450
53.1800 6.2657
53.1900 19.3538
53.2000 10.8552
53.2100 17.6409
53.2200 16.1744
53.2300 9.3875
53.2400 12.6794
53.2500 16.9303
53.2600 22.8728
53.2700 14.2861
53.2800 21.7830
53.2900 12.4059
53.3000 19.4701
53.3100 15.5150
53.3200 17.2441
53.3300 12.0464
53.3400 11.4494
53.3500 11.5467
53.3600 12.9901
53.3700 15.8027
53.3800 15.3541
53.3900 14.4977
53.4000 10.6359
53.4100 21.5289
53.4200 14.1092
53.4300 16.4923
53.4400 20.0364
53.4500 11.8975
53.4600 8.4998
53.4700 6.2538
53.4800 15.3209
53.4900 9.7244
53.5000 15.7340
53.5100 12.6448
53.5200 15.1451
53.5300 9.7174
53.5400 14.5262
53.5500 16.5020
53.5600 9.3358
53.5700 15.8861
53.5800 8.4918
53.5900 11.2504
53.6000 18.9961
53.6100 14.6292
53.6200 12.1279
53.6300 15.0448
53.6400 16.4936
53.6500 9.7952
53.6600 14.5720
53.6700 14.5067
53.6800 18.4440
53.6900 11.3715
53.7000 14.7906
53.7100 10.3833
53.7200 17.7168
53.7300 11.2529
53.7400 9.1364
53.7500 8.1022
53.7600 24.2143
53.7700 12.3923
53.7800 17.2219
53.7900 16.2078
53.8000 13.0829
53.8100 11.5803
53.8200 26.0838
53.8300 16.4199
53.8400 23.7993
53.8500 18.6553
53.8600 17.0413
53.8700 9.2150
53.8800 8.4040
53.8900 15.0823
53.9000 16.9770
53.9100 11.4186
53.9200 21.1565
53.9300 13.8836
53.9400 20.1632
53.9500 15.5850
53.9600 13.2043
53.9700 12.9389
53.9800 17.2753
53.9900 17.2790
54.0000 15.9999
54.0100 12.3410
54.0200 12.6765
54.0300 12.7033
54.0400 14.8501
54.0500 12.9607
54.0600 15.5089
54.0700 9.0882
54.0800 8.5392
54.0900 13.0123
54.1000 20.4659
54.1100 15.6307
54.1200 14.7617
54.1300 14.2134
54.1400 13.1937
54.1500 16.4429
54.1600 15.3176
54.1700 13.6746
54.1800 12.8927
54.1900 19.9105
54.2000 15.3736
54.2100 16.6556
54.2200 13.8441
54.2300 10.5774
54.2400 16.2000
54.2500 12.6625
54.2600 16.1171
54.2700 15.0985
54.2800 11.3773
54.2900 14.0459
54.3000 11.2657
54.3100 12.9094
54.3200 8.4456
54.3300 13.0624
54.3400 15.6562
54.3500 12.2354
54.3600 23.1573
54.3700 8.8647
54.3800 17.5912
54.3900 14.1607
54.4000 16.9989
54.4100 12.0579
54.4200 12.1060
54.4300 15.5910
54.4400 15.9011
54.4500 15.9488
54.4600 15.5054
54.4700 11.8435
54.4800 18.2807
54.4900 16.9387
54.5000 14.6869
54.5100 12.9947
54.5200 8.5413
54.5300 15.1562
54.5400 18.8101
54.5500 15.7559
54.5600 13.4298
54.5700 15.3818
54.5800 11.0703
54.5900 19.4252
54.6000 18.9729
54.6100 19.3466
54.6200 8.6947
54.6300 12.3171
54.6400 21.6291
54.6500 18.1532
54.6600 18.7679
54.6700 10.6503
54.6800 17.6360
54.6900 13.2816
54.7000 16.6145
54.7100 11.5237
54.7200 13.2234
54.7300 9.9785
54.7400 14.9143
54.7500 14.2185
54.7600 15.1571
54.7700 13.3458
54.7800 9.8821
54.7900 18.5375
54.8000 9.2012
54.8100 8.0824
54.8200 12.7687
54.8300 7.8209
54.8400 13.0017
54.8500 13.9492
54.8600 9.7002
54.8700 14.8487
54.8800 20.6386
54.8900 7.9389
54.9000 18.6463
54.9100 12.5135
54.9200 17.5081
54.9300 16.6000
54.9400 15.2639
54.9500 12.3207
54.9600 14.1502
54.9700 12.2836
54.9800 12.9482
54.9900 19.3407
55.0000 15.9513
55.0100 13.9737
55.0200 14.9937
55.0300 13.1043
55.0400 15.7904
55.0500 11.3910
55.0600 14.4200
55.0700 18.4056
55.0800 14.1481
55.0900 14.7154
55.1000 19.0618
55.1100 10.0585
55.1200 13.5321
55.1300 11.5392
55.1400 13.0756
55.1500 17.7137
55.1600 13.2860
55.1700 16.0024
55.1800 16.1632
55.1900 16.7608
55.2000 16.8937
55.2100 14.0919
55.2200 15.0500
55.2300 12.6248
55.2400 12.6785
55.2500 17.9952
55.2600 21.7995
55.2700 19.5902
55.2800 15.5469
55.2900 12.4315
55.3000 14.6000
55.3100 9.6532
55.3200 11.8411
55.3300 15.3387
55.3400 8.9178
55.3500 8.0248
55.3600 5.0614
55.3700 15.0931
55.3800 19.8298
55.3900 16.5671
55.4000 12.5578
55.4100 13.1747
55.4200 12.9338
55.4300 12.4581
55.4400 16.0117
55.4500 17.3129
55.4600 15.2942
55.4700 22.2920
55.4800 13.8739
55.4900 18.7219
55.5000 13.1742
55.5100 10.3495
55.5200 12.3408
55.5300 13.5971
55.5400 7.5704
55.5500 13.2778
55.5600 9.7857
55.5700 14.9783
55.5800 13.5834
55.5900 21.4096
55.6000 14.9848
55.6100 21.6966
55.6200 12.3211
55.6300 21.6003
55.6400 16.5143
55.6500 21.3761
55.6600 16.4360
55.6700 15.2570
55.6800 16.9668
55.6900 13.9678
55.7000 18.9045
55.7100 18.8444
55.7200 13.3012
55.7300 16.8758
55.7400 17.6837
55.7500 14.8433
55.7600 17.2563
55.7700 22.3063
55.7800 20.7128
55.7900 10.9484
55.8000 10.9596
55.8100 8.5908
55.8200 8.1195
55.8300 8.4613
55.8400 15.1075
55.8500 16.1916
55.8600 12.6840
55.8700 8.6106
55.8800 11.9598
55.8900 13.0456
55.9000 13.2019
55.9100 16.4857
55.9200 10.2087
55.9300 10.4039
55.9400 9.4635
55.9500 11.7955
55.9600 18.3404
55.9700 18.8764
55.9800 14.7411
55.9900 13.6290
56.0000 14.3159
56.0100 15.5816
56.0200 12.9122
56.0300 9.2961
56.0400 10.7492
56.0500 11.3925
56.0600 12.9428
56.0700 12.7404
56.0800 14.8032
56.0900 13.5483
56.1000 13.4713
56.1100 23.0643
56.1200 12.7618
56.1300 13.2536
56.1400 13.9325
56.1500 11.4452
56.1600 8.0646
56.1700 13.9401
56.1800 12.4697
56.1900 17.8556
56.2000 11.8538
56.2100 17.5515
56.2200 8.3518
56.2300 9.6707
56.2400 14.4119
56.2500 15.4206
56.2600 16.2700
56.2700 22.3123
56.2800 13.4469
56.2900 16.5595
56.3000 11.8958
56.3100 12.1363
56.3200 22.8913
56.3300 17.8937
56.3400 14.0304
56.3500 18.0965
56.3600 13.5590
56.3700 16.3399
56.3800 14.6118
56.3900 13.7227
56.4000 10.7427
56.4100 12.2217
56.4200 13.4940
56.4300 18.6566
56.4400 10.0631
56.4500 19.6915
56.4600 17.7805
56.4700 11.1825
56.4800 13.1613
56.4900 9.3659
56.5000 8.8248
56.5100 6.7547
56.5200 9.8127
56.5300 14.0757
56.5400 16.3839
56.5500 13.8125
56.5600 13.3143
56.5700 10.8107
56.5800 18.8922
56.5900 9.2354
56.6000 10.5966
56.6100 12.3188
56.6200 16.1850
56.6300 13.4143
56.6400 10.8023
56.6500 10.7212
56.6600 14.2766
56.6700 14.2362
56.6800 11.6306
56.6900 14.9999
56.7000 16.2879
56.7100 18.0447
56.7200 5.9105
56.7300 9.8423
56.7400 14.4006
56.7500 9.4961
56.7600 17.1945
56.7700 16.5339
56.7800 14.0159
56.7900 7.7350
56.8000 14.9021
56.8100 9.7149
56.8200 15.6518
56.8300 17.2835
56.8400 15.1460
56.8500 12.9563
56.8600 12.3086
56.8700 11.3046
56.8800 14.3800
56.8900 9.0416
56.9000 10.9794
56.9100 10.6114
56.9200 10.1577
56.9300 17.6873
56.9400 13.4671
56.9500 17.2542
56.9600 17.9307
56.9700 15.0213
56.9800 15.8580
56.9900 13.1581
57.0000 12.6066
57.0100 14.0390
57.0200 14.6252
57.0300 12.8958
57.0400 16.1446
57.0500 14.6879
57.0600 13.7677
57.0700 14.8177
57.0800 9.8777
57.0900 10.6716
57.1000 15.0118
57.1100 8.7011
57.1200 19.7435
57.1300 11.8955
57.1400 9.7442
57.1500 12.5943
57.1600 12.4955
57.1700 15.8812
57.1800 7.6884
57.1900 12.0331
57.2000 15.0686
57.2100 23.4180
57.2200 15.4496
57.2300 9.7368
57.2400 13.3883
57.2500 15.0587
57.2600 11.7861
57.2700 9.8964
57.2800 12.1555
57.2900 13.9976
57.3000 19.1661
57.3100 15.1355
57.3200 15.5805
57.3300 10.5446
57.3400 18.5059
57.3500 14.8179
57.3600 17.1645
57.3700 14.3476
57.3800 11.9954
57.3900 18.4196
57.4000 12.9437
57.4100 20.9863
57.4200 13.5178
57.4300 13.5801
57.4400 11.8452
57.4500 14.1429
57.4600 17.9564
57.4700 11.2994
57.4800 13.5030
57.4900 7.3051
57.5000 15.3793
57.5100 14.2680
57.5200 14.5472
57.5300 17.0450
57.5400 15.5781
57.5500 9.3933
57.5600 12.4456
57.5700 12.3784
57.5800 10.1954
57.5900 13.5574
57.6000 19.5603
57.6100 19.5117
57.6200 9.9109
57.6300 12.4254
57.6400 24.0039
57.6500 18.9171
57.6600 19.0334
57.6700 13.0806
57.6800 16.9528
57.6900 13.9004
57.7000 11.1982
57.7100 14.0540
57.7200 18.4232
57.7300 13.5673
57.7400 16.6056
57.7500 4.8657
57.7600 17.2356
57.7700 14.5920
57.7800 15.8532
57.7900 10.4756
57.8000 17.2575
57.8100 13.2958
57.8200 11.3585
57.8300 10.7090
57.8400 12.2092
57.8500 12.8146
57.8600 19.6143
57.8700 17.8092
57.8800 13.2080
57.8900 11.2340
57.9000 22.6432
57.9100 8.9333
57.9200 13.8231
57.9300 8.9347
57.9400 12.4786
57.9500 13.5135
57.9600 20.3102
57.9700 13.2560
57.9800 10.8831
57.9900 13.2057
58.0000 14.5168
58.0100 11.1844
58.0200 18.2036
58.0300 15.6943
58.0400 17.4393
58.0500 7.5399
58.0600 14.3511
58.0700 18.2245
58.0800 22.4101
58.0900 14.4149
58.1000 11.3901
58.1100 17.9899
58.1200 14.2320
58.1300 15.4542
58.1400 11.0649
58.1500 17.8820
58.1600 20.5735
58.1700 24.8961
58.1800 12.3659
58.1900 18.9091
58.2000 14.6068
58.2100 11.6096
58.2200 10.2367
58.2300 13.9847
58.2400 17.4275
58.2500 18.2890
58.2600 16.1647
58.2700 18.2489
58.2800 16.5879
58.2900 17.5774
58.3000 12.4735
58.3100 11.7327
58.3200 17.2897
58.3300 15.1309
58.3400 7.2433
58.3500 5.6094
58.3600 19.3420
58.3700 9.2914
58.3800 9.5088
58.3900 12.6987
58.4000 17.3976
58.4100 13.6389
58.4200 16.5528
58.4300 18.2699
58.4400 16.7817
58.4500 10.7394
58.4600 19.0543
58.4700 12.5798
58.4800 13.3097
58.4900 10.4913
58.5000 12.3503
58.5100 14.8572
58.5200 9.8409
58.5300 19.2012
58.5400 11.6201
58.5500 19.8432
58.5600 8.9756
58.5700 17.6221
58.5800 13.4990
58.5900 16.7668
58.6000 18.0877
58.6100 17.3566
58.6200 12.8124
58.6300 14.9758
58.6400 21.4877
58.6500 14.2390
58.6600 17.3025
58.6700 8.5953
58.6800 11.3494
58.6900 9.1199
58.7000 13.7430
58.7100 17.5681
58.7200 13.8580
58.7300 18.2208
58.7400 14.6332
58.7500 15.6132
58.7600 16.3379
58.7700 19.4548
58.7800 21.0253
58.7900 12.7563
58.8000 19.4674
58.8100 14.1426
58.8200 19.1706
58.8300 8.6762
58.8400 16.4187
58.8500 12.6611
58.8600 17.3601
58.8700 12.7881
58.8800 12.6683
58.8900 15.5909
58.9000 11.8344
58.9100 17.0150
58.9200 14.3316
58.9300 13.5943
58.9400 11.7222
58.9500 11.9480
58.9600 12.3437
58.9700 7.9821
58.9800 13.1779
58.9900 13.2348
59.0000 13.3828
59.0100 11.4446
59.0200 8.6465
59.0300 22.2633
59.0400 13.1340
59.0500 11.3792
59.0600 11.2418
59.0700 16.9181
59.0800 13.2377
59.0900 12.2674
59.1000 10.7964
59.1100 16.7719
59.1200 11.9405
59.1300 16.8812
59.1400 11.8599
59.1500 14.2418
59.1600 10.0805
59.1700 11.7713
59.1800 14.1437
59.1900 16.5352
59.2000 18.6090
59.2100 12.7662
59.2200 11.4091
59.2300 16.2467
59.2400 9.9230
59.2500 13.4269
59.2600 13.8474
59.2700 15.1452
59.2800 19.1769
59.2900 10.7930
59.3000 10.7918
59.3100 10.1520
59.3200 13.9174
59.3300 11.3330
59.3400 11.3667
59.3500 9.7627
59.3600 4.7027
59.3700 10.1802
59.3800 13.6318
59.3900 13.7852
59.4000 6.1866
59.4100 19.4983
59.4200 17.5196
59.4300 18.9363
59.4400 13.3781
59.4500 19.4477
59.4600 12.0128
59.4700 11.8514
59.4800 15.1430
59.4900 10.9521
59.5000 11.1120
59.5100 10.7454
59.5200 13.4422
59.5300 15.6838
59.5400 18.1073
59.5500 8.1253
59.5600 15.9315
59.5700 17.7048
59.5800 13.4912
59.5900 11.6505
59.6000 13.1785
59.6100 14.8075
59.6200 13.4397
59.6300 10.7305
59.6400 16.0339
59.6500 15.0798
59.6600 14.0653
59.6700 12.4678
59.6800 22.5565
59.6900 16.4932
59.7000 15.7947
59.7100 15.0985
59.7200 11.9473
59.7300 12.9301
59.7400 22.4003
59.7500 14.5314
59.7600 18.6102
59.7700 13.5994
59.7800 12.5829
59.7900 13.3264
59.8000 15.1991
59.8100 14.8456
59.8200 10.0802
59.8300 8.2330
59.8400 10.8274
59.8500 11.3090
59.8600 17.2028
59.8700 15.5242
59.8800 14.2463
59.8900 13.0586
59.9000 16.2950
59.9100 10.3134
59.9200 19.2529
59.9300 10.7462
59.9400 19.3194
59.9500 13.1478
59.9600 18.5804
59.9700 12.2549
59.9800 8.2483
59.9900 8.5865
60.0000 7.6759
60.0100 10.3604
60.0200 10.5019
60.0300 6.6087
60.0400 11.4065
60.0500 12.2841
60.0600 15.1842
60.0700 19.0253
60.0800 15.5090
60.0900 12.8758
60.1000 8.5507
60.1100 7.2334
60.1200 8.5924
60.1300 19.4119
60.1400 13.5955
60.1500 15.2229
60.1600 20.4146
60.1700 16.7721
60.1800 17.9636
60.1900 13.8967
60.2000 15.9839
60.2100 15.4384
60.2200 11.3530
60.2300 13.5525
60.2400 14.6606
60.2500 18.4814
60.2600 18.4735
60.2700 15.4896
60.2800 20.7623
60.2900 15.4693
60.3000 13.0196
60.3100 15.1127
60.3200 9.8256
60.3300 13.9109
60.3400 15.1525
60.3500 13.6616
60.3600 13.4579
60.3700 22.7588
60.3800 21.5385
60.3900 26.8676
60.4000 19.4121
60.4100 25.9741
60.4200 22.4724
60.4300 21.5875
60.4400 13.7073
60.4500 20.0614
60.4600 27.2937
60.4700 16.8067
60.4800 20.9116
60.4900 17.2194
60.5000 17.0963
60.5100 9.2504
60.5200 13.0088
60.5300 7.3724
60.5400 12.4540
60.5500 16.6953
60.5600 7.5819
60.5700 18.9132
60.5800 14.5427
60.5900 16.4374
60.6000 21.8268
60.6100 15.7353
60.6200 14.6757
60.6300 13.2320
60.6400 13.0845
60.6500 15.0231
60.6600 10.6860
60.6700 17.4091
60.6800 12.5643
60.6900 16.1828
60.7000 15.1412
60.7100 12.6187
60.7200 14.1361
60.7300 18.2308
60.7400 10.3115
60.7500 16.9826
60.7600 21.0964
60.7700 16.2697
60.7800 13.9584
60.7900 20.8491
60.8000 15.7623
60.8100 13.0831
60.8200 17.4812
60.8300 12.8733
60.8400 12.1453
60.8500 16.7550
60.8600 14.0339
60.8700 14.4548
60.8800 9.9445
60.8900 18.1667
60.9000 13.0714
60.9100 13.6346
60.9200 15.5783
60.9300 20.6870
60.9400 12.5758
60.9500 14.7287
60.9600 11.5168
60.9700 20.6439
60.9800 19.0899
60.9900 18.1475
61.0000 10.4163
61.0100 12.6673
61.0200 14.3059
61.0300 15.0537
61.0400 22.8173
61.0500 17.9394
61.0600 15.8315
61.0700 6.8047
61.0800 13.4436
61.0900 13.7976
61.1000 15.4602
61.1100 16.4452
61.1200 15.2106
61.1300 9.5390
61.1400 17.1896
61.1500 14.0349
61.1600 13.1778
61.1700 15.0389
61.1800 17.3950
61.1900 11.0382
61.2000 10.5826
61.2100 17.4926
61.2200 19.1064
61.2300 7.5687
61.2400 16.9629
61.2500 16.6724
61.2600 13.6441
61.2700 13.1688
61.2800 9.8797
61.2900 16.0055
61.3000 17.2153
61.3100 16.6236
61.3200 12.9872
61.3300 10.9873
61.3400 14.4606
61.3500 15.5601
61.3600 8.2020
61.3700 12.7814
61.3800 15.0858
61.3900 14.9721
61.4000 12.6111
61.4100 8.6596
61.4200 10.8642
61.4300 9.7750
61.4400 21.0418
61.4500 14.2356
61.4600 20.3671
61.4700 13.6148
61.4800 13.2616
61.4900 9.6928
61.5000 10.2232
61.5100 10.8566
61.5200 12.2506
61.5300 14.9388
61.5400 8.0398
61.5500 11.8367
61.5600 10.5929
61.5700 17.2788
61.5800 14.8135
61.5900 14.6271
61.6000 12.4198
61.6100 11.8350
61.6200 17.3514
61.6300 19.7404
61.6400 15.5876
61.6500 21.2411
61.6600 13.6159
61.6700 15.9633
61.6800 14.3492
61.6900 11.0922
61.7000 13.0625
61.7100 11.6417
61.7200 12.4546
61.7300 18.0007
61.7400 20.7801
61.7500 13.7616
61.7600 13.3899
61.7700 12.5775
61.7800 11.5520
61.7900 17.8552
61.8000 14.5641
61.8100 17.7805
61.8200 19.1385
61.8300 18.6720
61.8400 14.9958
61.8500 22.6494
61.8600 13.3019
61.8700 13.4955
61.8800 17.6798
61.8900 13.6860
61.9000 7.9248
61.9100 11.4920
61.9200 14.3468
61.9300 13.0372
61.9400 9.1517
61.9500 8.5257
61.9600 17.4369
61.9700 15.0147
61.9800 10.7258
61.9900 17.6357
62.0000 17.0336
62.0100 10.2985
62.0200 10.8326
62.0300 15.1274
62.0400 13.0950
62.0500 16.8615
62.0600 16.7697
62.0700 16.2111
62.0800 14.0590
62.0900 13.7169
62.1000 12.9479
62.1100 1.3708
62.1200 8.8807
62.1300 12.6649
62.1400 16.5406
62.1500 11.7474
62.1600 10.0793
62.1700 13.2955
62.1800 12.7761
62.1900 15.5093
62.2000 11.7465
62.2100 10.3337
62.2200 19.1857
62.2300 14.1446
62.2400 16.3411
62.2500 11.1452
62.2600 18.8093
62.2700 16.8218
62.2800 10.5525
62.2900 5.0640
62.3000 14.4519
62.3100 15.4886
62.3200 14.8300
62.3300 13.2718
62.3400 12.8985
62.3500 17.7222
62.3600 15.6804
62.3700 17.7196
62.3800 13.9632
62.3900 17.2252
62.4000 14.9538
62.4100 17.9621
62.4200 18.3069
62.4300 11.6713
62.4400 10.2281
62.4500 19.9297
62.4600 19.4934
62.4700 14.3065
62.4800 11.5503
62.4900 11.8467
62.5000 11.8236
62.5100 18.3325
62.5200 11.9419
62.5300 13.8596
62.5400 14.7812
62.5500 18.5623
62.5600 15.6064
62.5700 16.3377
62.5800 18.8226
62.5900 11.5969
62.6000 20.1507
62.6100 12.2999
62.6200 12.6537
62.6300 14.2346
62.6400 17.8750
62.6500 15.1482
62.6600 13.0986
62.6700 17.3626
62.6800 11.5010
62.6900 10.4637
62.7000 9.6476
62.7100 16.9396
62.7200 22.9718
62.7300 16.3842
62.7400 15.7204
62.7500 19.8907
62.7600 19.7574
62.7700 14.2336
62.7800 12.9500
62.7900 14.1197
62.8000 16.0359
62.8100 13.7431
62.8200 15.1670
62.8300 12.9205
62.8400 9.7715
62.8500 12.4302
62.8600 12.9904
62.8700 15.4994
62.8800 17.4085
62.8900 12.8879
62.9000 14.8834
62.9100 12.1262
62.9200 15.4853
62.9300 9.5376
62.9400 14.0077
62.9500 13.1491
62.9600 19.3940
62.9700 10.0108
62.9800 12.8262
62.9900 8.9942
63.0000 16.7387
63.0100 15.5935
63.0200 14.0931
63.0300 10.5289
63.0400 16.8824
63.0500 24.5742
63.0600 13.4530
63.0700 11.1575
63.0800 12.3358
63.0900 17.4740
63.1000 15.7414
63.1100 14.5993
63.1200 12.4142
63.1300 21.1231
63.1400 15.9742
63.1500 12.2582
63.1600 16.2454
63.1700 17.8066
63.1800 14.2875
63.1900 17.5509
63.2000 25.2784
63.2100 15.3573
63.2200 20.0147
63.2300 14.8903
63.2400 16.4398
63.2500 14.6888
63.2600 14.6429
63.2700 15.6782
63.2800 14.8980
63.2900 12.0069
63.3000 15.6886
63.3100 17.3776
63.3200 17.1486
63.3300 7.2289
63.3400 9.0088
63.3500 7.5467
63.3600 15.2180
63.3700 11.6113
63.3800 14.0566
63.3900 14.4791
63.4000 16.4734
63.4100 15.2671
63.4200 15.5864
63.4300 13.0751
63.4400 15.8919
63.4500 11.5702
63.4600 10.7438
63.4700 17.8724
63.4800 7.6280
63.4900 11.0440
63.5000 10.0002
63.5100 13.9215
63.5200 10.4477
63.5300 11.8360
63.5400 9.1814
63.5500 15.4791
63.5600 8.2429
63.5700 8.6542
63.5800 19.2060
63.5900 14.9115
63.6000 15.6985
63.6100 12.8648
63.6200 17.5803
63.6300 10.9279
63.6400 12.7535
63.6500 18.5189
63.6600 11.8578
63.6700 6.4925
63.6800 15.4379
63.6900 12.2038
63.7000 13.2363
63.7100 16.6895
63.7200 10.8796
63.7300 12.0565
63.7400 14.9252
63.7500 12.0296
63.7600 19.3990
63.7700 21.1127
63.7800 12.5255
63.7900 20.6644
63.8000 18.2153
63.8100 24.1369
63.8200 13.3183
63.8300 20.3871
63.8400 14.5447
63.8500 18.8580
63.8600 10.7186
63.8700 17.6448
63.8800 18.0731
63.8900 13.4009
63.9000 11.7993
63.9100 11.9734
63.9200 18.9387
63.9300 15.4370
63.9400 16.0363
63.9500 20.0496
63.9600 8.1067
63.9700 16.2509
63.9800 11.7812
63.9900 7.5166
64.0000 10.7966
64.0100 9.1767
64.0200 17.2334
64.0300 15.6403
64.0400 12.3855
64.0500 12.1778
64.0600 17.2503
64.0700 15.5416
64.0800 16.1841
64.0900 11.2531
64.1000 18.6034
64.1100 16.9077
64.1200 16.6310
64.1300 26.0304
64.1400 25.6936
64.1500 10.3313
64.1600 21.5654
64.1700 13.5818
64.1800 26.8762
64.1900 20.5102
64.2000 23.2149
64.2100 5.9325
64.2200 15.4882
64.2300 15.5933
64.2400 16.6982
64.2500 21.3130
64.2600 17.2497
64.2700 16.7957
64.2800 15.1107
64.2900 10.0909
64.3000 12.1940
64.3100 15.5686
64.3200 14.8708
64.3300 15.0807
64.3400 10.9869
64.3500 11.3774
64.3600 12.8418
64.3700 13.9085
64.3800 14.4197
64.3900 13.9260
64.4000 20.5459
64.4100 14.5448
64.4200 15.6114
64.4300 19.0269
64.4400 21.2465
64.4500 18.7439
64.4600 16.1572
64.4700 16.1414
64.4800 14.6621
64.4900 18.3534
64.5000 11.6649
64.5100 18.2921
64.5200 15.9017
64.5300 23.7444
64.5400 13.1530
64.5500 16.0216
64.5600 15.7137
64.5700 23.1845
64.5800 22.5091
64.5900 21.8791
64.6000 24.7218
64.6100 19.5899
64.6200 26.0597
64.6300 22.6048
64.6400 23.0224
64.6500 27.5277
64.6600 33.6977
64.6700 25.3939
64.6800 27.5382
64.6900 28.3363
64.7000 34.8834
64.7100 47.3635
64.7200 43.7087
64.7300 42.0622
64.7400 41.8969
64.7500 57.3661
64.7600 40.0446
64.7700 38.7997
64.7800 50.7459
64.7900 56.6826
64.8000 49.9774
64.8100 58.2049
64.8200 48.3588
64.8300 49.0609
64.8400 37.1613
64.8500 42.3633
64.8600 43.7494
64.8700 46.1258
64.8800 39.2001
64.8900 41.3164
64.9000 41.6550
64.9100 40.8148
64.9200 39.2426
64.9300 30.7973
64.9400 37.0775
64.9500 27.1473
64.9600 33.8258
64.9700 30.8053
64.9800 30.7679
64.9900 25.3996
65.0000 26.5550
65.0100 17.2858
65.0200 19.5076
65.0300 24.7624
65.0400 23.3980
65.0500 18.5162
65.0600 30.1723
65.0700 24.4460
65.0800 22.0148
65.0900 21.8009
65.1000 17.6787
65.1100 27.4696
65.1200 15.5193
65.1300 11.7449
65.1400 19.9168
65.1500 16.1853
65.1600 15.0526
65.1700 20.5554
65.1800 8.8297
65.1900 18.1161
65.2000 22.3783
65.2100 12.0065
65.2200 16.3379
65.2300 16.9721
65.2400 12.2623
65.2500 19.7032
65.2600 14.7559
65.2700 21.3343
65.2800 15.3733
65.2900 19.2226
65.3000 13.2418
65.3100 19.9828
65.3200 17.0722
65.3300 16.7541
65.3400 18.1174
65.3500 23.9959
65.3600 15.6209
65.3700 16.0897
65.3800 16.6670
65.3900 18.8882
65.4000 10.5833
65.4100 11.5705
65.4200 13.3363
65.4300 14.0013
65.4400 15.7465
65.4500 10.1770
65.4600 11.5686
65.4700 13.1958
65.4800 16.1425
65.4900 13.7439
65.5000 21.3813
65.5100 11.5492
65.5200 14.3575
65.5300 10.7696
65.5400 23.1650
65.5500 16.5799
65.5600 17.0291
65.5700 16.2605
65.5800 17.8427
65.5900 9.2566
65.6000 9.9692
65.6100 17.2952
65.6200 9.5108
65.6300 17.1508
65.6400 10.6529
65.6500 10.0500
65.6600 13.7444
65.6700 12.9518
65.6800 11.6834
65.6900 7.4841
65.7000 8.9342
65.7100 11.6351
65.7200 13.9442
65.7300 14.8070
65.7400 16.4173
65.7500 17.3378
65.7600 12.1100
65.7700 8.6004
65.7800 8.9166
65.7900 12.1453
65.8000 15.8657
65.8100 15.9172
65.8200 9.9515
65.8300 14.6225
65.8400 9.8655
65.8500 11.7899
65.8600 17.0617
65.8700 15.4569
65.8800 18.2764
65.8900 10.2770
65.9000 9.3098
65.9100 15.6228
65.9200 10.4492
65.9300 11.2893
65.9400 16.6380
65.9500 11.3948
65.9600 14.4979
65.9700 15.6674
65.9800 9.0766
65.9900 17.2923
66.0000 13.4133
66.0100 15.4023
66.0200 17.9429
66.0300 8.4393
66.0400 18.2410
66.0500 7.8668
66.0600 19.5733
66.0700 27.2026
66.0800 17.4591
66.0900 19.5097
66.1000 16.0257
66.1100 12.8948
66.1200 19.3064
66.1300 19.9535
66.1400 13.0774
66.1500 7.5821
66.1600 16.3495
66.1700 14.4334
66.1800 18.0417
66.1900 18.4717
66.2000 13.7816
66.2100 21.2806
66.2200 17.7434
66.2300 15.8076
66.2400 12.0549
66.2500 9.1206
66.2600 9.4958
66.2700 17.6622
66.2800 18.9042
66.2900 9.7229
66.3000 19.2872
66.3100 22.3918
66.3200 16.0159
66.3300 11.5610
66.3400 17.0707
66.3500 15.0278
66.3600 12.2775
66.3700 10.6147
66.3800 9.9072
66.3900 12.8469
66.4000 11.4323
66.4100 16.0190
66.4200 17.3250
66.4300 7.9128
66.4400 17.0791
66.4500 19.4933
66.4600 15.4037
66.4700 14.2587
66.4800 17.6501
66.4900 13.7710
66.5000 16.9719
66.5100 14.2984
66.5200 16.7668
66.5300 11.4516
66.5400 19.5635
66.5500 16.2425
66.5600 11.5444
66.5700 8.7619
66.5800 16.8398
66.5900 19.5568
66.6000 24.4215
66.6100 17.5790
66.6200 19.7277
66.6300 16.0519
66.6400 8.6969
66.6500 13.7432
66.6600 14.5405
66.6700 15.2651
66.6800 8.0266
66.6900 9.3383
66.7000 16.4177
66.7100 15.0864
66.7200 14.6942
66.7300 19.0010
66.7400 13.4584
66.7500 9.9299
66.7600 11.6966
66.7700 13.8583
66.7800 17.4127
66.7900 16.9157
66.8000 14.7534
66.8100 20.9495
66.8200 9.9368
66.8300 7.5158
66.8400 9.8785
66.8500 10.3819
66.8600 7.3764
66.8700 13.1336
66.8800 9.5415
66.8900 13.2995
66.9000 14.4083
66.9100 12.0596
66.9200 9.8822
66.9300 10.3111
66.9400 12.1986
66.9500 13.1628
66.9600 15.4315
66.9700 15.8468
66.9800 9.2891
66.9900 18.3063
67.0000 16.0298
67.0100 16.3204
67.0200 18.3085
67.0300 13.8806
67.0400 16.8257
67.0500 11.7516
67.0600 15.1707
67.0700 16.4585
67.0800 20.9398
67.0900 12.3873
67.1000 13.2422
67.1100 15.2063
67.1200 16.1239
67.1300 8.2158
67.1400 11.5351
67.1500 17.4882
67.1600 10.1778
67.1700 14.3487
67.1800 15.0716
67.1900 10.8526
67.2000 17.3949
67.2100 18.9223
67.2200 19.7129
67.2300 12.9047
67.2400 17.2905
67.2500 22.2119
67.2600 17.4029
67.2700 11.8601
67.2800 14.7158
67.2900 16.2873
67.3000 12.2482
67.3100 10.8583
67.3200 12.4969
67.3300 11.9754
67.3400 16.3415
67.3500 16.3324
67.3600 11.9994
67.3700 8.8737
67.3800 18.7886
67.3900 12.6227
67.4000 16.6451
67.4100 17.0632
67.4200 16.8264
67.4300 13.3562
67.4400 13.4903
67.4500 16.6163
67.4600 13.3413
67.4700 19.8408
67.4800 9.1447
67.4900 17.2234
67.5000 10.8451
67.5100 13.2580
67.5200 24.4143
67.5300 15.7429
67.5400 18.8837
67.5500 14.6091
67.5600 21.1281
67.5700 21.4022
67.5800 24.5439
67.5900 14.7139
67.6000 15.3510
67.6100 10.6550
67.6200 21.5023
67.6300 13.5782
67.6400 10.2631
67.6500 8.7687
67.6600 13.0282
67.6700 11.1772
67.6800 14.5418
67.6900 11.3162
67.7000 9.1356
67.7100 18.4660
67.7200 8.5121
67.7300 12.1311
67.7400 8.6114
67.7500 14.2394
67.7600 14.0997
67.7700 14.4411
67.7800 11.1099
67.7900 15.8515
67.8000 15.4196
67.8100 21.6042
67.8200 13.7424
67.8300 20.5676
67.8400 15.0395
67.8500 17.3190
67.8600 13.0611
67.8700 12.9535
67.8800 12.6223
67.8900 20.6975
67.9000 10.2926
67.9100 13.7492
67.9200 13.5741
67.9300 11.0459
67.9400 9.1213
67.9500 10.6365
67.9600 13.4820
67.9700 12.0647
67.9800 8.9499
67.9900 17.3995
68.0000 13.7428
68.0100 16.3237
68.0200 18.1205
68.0300 21.1469
68.0400 11.9569
68.0500 17.2512
68.0600 17.0451
68.0700 11.1776
68.0800 16.4979
68.0900 10.9095
68.1000 15.5356
68.1100 9.6511
68.1200 10.3393
68.1300 12.6648
68.1400 8.6568
68.1500 11.1935
68.1600 18.3423
68.1700 13.6408
68.1800 14.1485
68.1900 16.9236
68.2000 12.8460
68.2100 8.7641
68.2200 8.1821
68.2300 16.3811
68.2400 9.6812
68.2500 10.3548
68.2600 11.6784
68.2700 9.4208
68.2800 10.0030
68.2900 14.5370
68.3000 14.3676
68.3100 7.8836
68.3200 15.3811
68.3300 10.4592
68.3400 15.2492
68.3500 13.0656
68.3600 13.7073
68.3700 17.7231
68.3800 9.2602
68.3900 15.3234
68.4000 16.1709
68.4100 15.7134
68.4200 15.5356
68.4300 15.5226
68.4400 7.5429
68.4500 17.2699
68.4600 17.9076
68.4700 17.2626
68.4800 14.3433
68.4900 8.5515
68.5000 12.4282
68.5100 14.9385
68.5200 10.6841
68.5300 17.6055
68.5400 18.9378
68.5500 12.7100
68.5600 14.9363
68.5700 3.5612
68.5800 14.2007
68.5900 9.1092
68.6000 13.1124
68.6100 16.3276
68.6200 12.0080
68.6300 10.5880
68.6400 7.1729
68.6500 15.8438
68.6600 15.1045
68.6700 17.4427
68.6800 14.9423
68.6900 15.7162
68.7000 12.8746
68.7100 12.8126
68.7200 9.3911
68.7300 7.3955
68.7400 10.7118
68.7500 11.9644
68.7600 13.3649
68.7700 21.2143
68.7800 10.2749
68.7900 15.9522
68.8000 11.3244
68.8100 11.2959
68.8200 8.9490
68.8300 8.7223
68.8400 15.1966
68.8500 9.2809
68.8600 10.1285
68.8700 11.5915
68.8800 17.5100
68.8900 13.1307
68.9000 11.7384
68.9100 15.7469
68.9200 11.1814
68.9300 12.2659
68.9400 11.7644
68.9500 6.9107
68.9600 14.3378
68.9700 17.4561
68.9800 10.4413
68.9900 7.3459
69.0000 11.7582
69.0100 13.2891
69.0200 12.2421
69.0300 15.7365
69.0400 8.6065
69.0500 15.3230
69.0600 14.1041
69.0700 14.4844
69.0800 11.5806
69.0900 9.0801
69.1000 14.4910
69.1100 15.0819
69.1200 15.6162
69.1300 12.7427
69.1400 18.2644
69.1500 11.3927
69.1600 15.0573
69.1700 10.8351
69.1800 20.0685
69.1900 14.6307
69.2000 13.5799
69.2100 11.5583
69.2200 12.3234
69.2300 14.5670
69.2400 10.5386
69.2500 12.9660
69.2600 14.7640
69.2700 16.8254
69.2800 17.3093
69.2900 13.4024
69.3000 5.7915
69.3100 11.8596
69.3200 10.6328
69.3300 15.2695
69.3400 14.8685
69.3500 18.0070
69.3600 11.2544
69.3700 9.3659
69.3800 9.4642
69.3900 16.9122
69.4000 16.1632
69.4100 18.9878
69.4200 25.5341
69.4300 13.9914
69.4400 11.4957
69.4500 12.8219
69.4600 18.2344
69.4700 13.4047
69.4800 20.2581
69.4900 8.8242
69.5000 20.3034
69.5100 15.1187
69.5200 14.5343
69.5300 11.7862
69.5400 17.1100
69.5500 14.5346
69.5600 12.1706
69.5700 18.0818
69.5800 9.4712
69.5900 14.5165
69.6000 8.9012
69.6100 13.2418
69.6200 10.0727
69.6300 13.9759
69.6400 16.1885
69.6500 17.1382
69.6600 17.9420
69.6700 11.0379
69.6800 11.6644
69.6900 15.1720
69.7000 17.7046
69.7100 15.6856
69.7200 18.6468
69.7300 13.6758
69.7400 19.8590
69.7500 10.6512
69.7600 13.9783
69.7700 13.0211
69.7800 16.1787
69.7900 12.5807
69.8000 22.9962
69.8100 11.0311
69.8200 13.7357
69.8300 16.1315
69.8400 13.4949
69.8500 13.5096
69.8600 15.7079
69.8700 12.9450
69.8800 14.2426
69.8900 9.9519
69.9000 22.3701
69.9100 16.0566
69.9200 12.8671
69.9300 15.8461
69.9400 16.5581
69.9500 21.7632
69.9600 15.8245
69.9700 28.5547
69.9800 14.4093
69.9900 22.4617
70.0000 12.2628
70.0100 15.7392
70.0200 9.3772
70.0300 12.5105
70.0400 15.1196
70.0500 9.6716
70.0600 15.0511
70.0700 10.1439
70.0800 23.9180
70.0900 19.9494
70.1000 17.0529
70.1100 14.0299
70.1200 13.3534
70.1300 14.0569
70.1400 17.1110
70.1500 19.2413
70.1600 14.9732
70.1700 8.2912
70.1800 23.3523
70.1900 13.3145
70.2000 17.1049
70.2100 16.2972
70.2200 15.7079
70.2300 15.0862
70.2400 7.5363
70.2500 20.7004
70.2600 11.2741
70.2700 13.4411
70.2800 10.5073
70.2900 11.9706
70.3000 14.2601
70.3100 19.6657
70.3200 15.7122
70.3300 12.6216
70.3400 13.3751
70.3500 20.6952
70.3600 11.8433
70.3700 12.2684
70.3800 12.3641
70.3900 4.9203
70.4000 12.1238
70.4100 10.2941
70.4200 11.8535
70.4300 17.7804
70.4400 10.3569
70.4500 15.1473
70.4600 18.5215
70.4700 10.8759
70.4800 12.2295
70.4900 15.1162
70.5000 16.1489
70.5100 12.3582
70.5200 13.6775
70.5300 16.3204
70.5400 11.2892
70.5500 10.4270
70.5600 5.3358
70.5700 11.3780
70.5800 16.8253
70.5900 11.6442
70.6000 17.3839
70.6100 16.7189
70.6200 13.0131
70.6300 12.5418
70.6400 11.3354
70.6500 21.4221
70.6600 12.0497
70.6700 26.0296
70.6800 21.1984
70.6900 16.4455
70.7000 16.7638
70.7100 17.5261
70.7200 16.2952
70.7300 9.6356
70.7400 9.3237
70.7500 9.9704
70.7600 6.3591
70.7700 10.4023
70.7800 16.7059
70.7900 13.3499
70.8000 14.7260
70.8100 15.1695
70.8200 10.1482
70.8300 10.5290
70.8400 17.4487
70.8500 16.2636
70.8600 11.4290
70.8700 12.5743
70.8800 13.1807
70.8900 8.4381
70.9000 9.7899
70.9100 10.1569
70.9200 16.5113
70.9300 16.1352
70.9400 13.5713
70.9500 16.9945
70.9600 9.5919
70.9700 9.3394
70.9800 19.2711
70.9900 9.8209
71.0000 13.4195
71.0100 18.2478
71.0200 14.5737
71.0300 5.7404
71.0400 10.8709
71.0500 10.7140
71.0600 13.4034
71.0700 15.0455
71.0800 20.3167
71.0900 14.0856
71.1000 11.3126
71.1100 10.5874
71.1200 11.5179
71.1300 17.9461
71.1400 13.2784
71.1500 19.3083
71.1600 17.9282
71.1700 12.6434
71.1800 9.3901
71.1900 10.2938
71.2000 8.2454
71.2100 10.3347
71.2200 14.2131
71.2300 12.5621
71.2400 9.5831
71.2500 13.6912
71.2600 10.3880
71.2700 12.8965
71.2800 8.9201
71.2900 12.8286
71.3000 10.8972
71.3100 10.4703
71.3200 8.1912
71.3300 8.8673
71.3400 9.0732
71.3500 9.9832
71.3600 9.7871
71.3700 9.2783
71.3800 8.8153
71.3900 12.3504
71.4000 16.4794
71.4100 15.5110
71.4200 9.2492
71.4300 17.2341
71.4400 16.1619
71.4500 17.7646
71.4600 15.6089
71.4700 14.6994
71.4800 13.9146
71.4900 16.0887
71.5000 13.0456
71.5100 14.6617
71.5200 22.7508
71.5300 20.3345
71.5400 16.9239
71.5500 12.9991
71.5600 25.6520
71.5700 11.6884
71.5800 21.3364
71.5900 14.5952
71.6000 20.7838
71.6100 15.0134
71.6200 18.7938
71.6300 8.2760
71.6400 9.8562
71.6500 15.5439
71.6600 18.3181
71.6700 16.0006
71.6800 15.0656
71.6900 15.4339
71.7000 13.2851
71.7100 15.7651
71.7200 15.7312
71.7300 13.5857
71.7400 17.9789
71.7500 11.5079
71.7600 13.5531
71.7700 10.4279
71.7800 10.2561
71.7900 19.3603
71.8000 19.9739
71.8100 17.4330
71.8200 20.0663
71.8300 13.3183
71.8400 14.1038
71.8500 9.3738
71.8600 13.5216
71.8700 10.9602
71.8800 13.6255
71.8900 12.8233
71.9000 10.3560
71.9100 16.0963
71.9200 15.0707
71.9300 11.3568
71.9400 22.3204
71.9500 18.9026
71.9600 22.8251
71.9700 19.0998
71.9800 13.5211
71.9900 19.5953
72.0000 13.1521
72.0100 11.7112
72.0200 16.8099
72.0300 18.0742
72.0400 11.9649
72.0500 12.5533
72.0600 12.3339
72.0700 10.1798
72.0800 7.4739
72.0900 10.9282
72.1000 12.9623
72.1100 12.4755
72.1200 14.0531
72.1300 12.6575
72.1400 13.3247
72.1500 17.7824
72.1600 11.9269
72.1700 16.1362
72.1800 16.7065
72.1900 16.8050
72.2000 15.9235
72.2100 15.2779
72.2200 13.5475
72.2300 18.3939
72.2400 10.5561
72.2500 11.7627
72.2600 19.5411
72.2700 19.5267
72.2800 10.7967
72.2900 7.2433
72.3000 11.1449
72.3100 20.1053
72.3200 16.7544
72.3300 15.0305
72.3400 16.5301
72.3500 16.4449
72.3600 18.5177
72.3700 8.6233
72.3800 13.6997
72.3900 10.3810
72.4000 18.8467
72.4100 16.2003
72.4200 13.5200
72.4300 15.1984
72.4400 9.4901
72.4500 15.9279
72.4600 7.4866
72.4700 14.4711
72.4800 12.2542
72.4900 20.6931
72.5000 15.5030
72.5100 17.7654
72.5200 12.4767
72.5300 18.5350
72.5400 9.6643
72.5500 13.1388
72.5600 19.1173
72.5700 11.3657
72.5800 17.1763
72.5900 10.0579
72.6000 14.7350
72.6100 9.7711
72.6200 11.6831
72.6300 6.3180
72.6400 16.2913
72.6500 14.1271
72.6600 11.6505
72.6700 6.0087
72.6800 15.6112
72.6900 13.0814
72.7000 18.7757
72.7100 17.7704
72.7200 16.5102
72.7300 11.0385
72.7400 9.3409
72.7500 9.8824
72.7600 14.1765
72.7700 10.5786
72.7800 15.5871
72.7900 13.9815
72.8000 16.1059
72.8100 12.3550
72.8200 11.8595
72.8300 11.0415
72.8400 10.0363
72.8500 17.5259
72.8600 6.6251
72.8700 8.5266
72.8800 12.9197
72.8900 11.9508
72.9000 21.5885
72.9100 14.3751
72.9200 13.3384
72.9300 11.7451
72.9400 16.6558
72.9500 17.6294
72.9600 14.5374
72.9700 17.4596
72.9800 14.1092
72.9900 10.5800
73.0000 21.0714
73.0100 11.2748
73.0200 19.7840
73.0300 14.3998
73.0400 7.4642
73.0500 14.6983
73.0600 10.8221
73.0700 7.4847
73.0800 13.3706
73.0900 11.4623
73.1000 11.9523
73.1100 17.7887
73.1200 18.8863
73.1300 12.0891
73.1400 12.0708
73.1500 12.4402
73.1600 14.7287
73.1700 14.1104
73.1800 12.8435
73.1900 8.6939
73.2000 11.0141
73.2100 6.4480
73.2200 11.7529
73.2300 16.4266
73.2400 16.4237
73.2500 10.3121
73.2600 12.7322
73.2700 12.8712
73.2800 14.0429
73.2900 11.1157
73.3000 16.7958
73.3100 11.5632
73.3200 11.7580
73.3300 9.6031
73.3400 16.2518
73.3500 14.4191
73.3600 17.6919
73.3700 20.4609
73.3800 19.4252
73.3900 21.6148
73.4000 20.7538
73.4100 11.6177
73.4200 15.1997
73.4300 19.7781
73.4400 16.7018
73.4500 15.7260
73.4600 8.2937
73.4700 14.4197
73.4800 13.2192
73.4900 15.7453
73.5000 13.2693
73.5100 19.3013
73.5200 20.9995
73.5300 19.2201
73.5400 20.2667
73.5500 17.9696
73.5600 18.5761
73.5700 13.1676
73.5800 10.9222
73.5900 12.9212
73.6000 12.1849
73.6100 11.5929
73.6200 10.8446
73.6300 7.4240
73.6400 7.7477
73.6500 13.7719
73.6600 7.6277
73.6700 14.3612
73.6800 20.0359
73.6900 14.9618
73.7000 13.0949
73.7100 13.6059
73.7200 10.2968
73.7300 11.7192
73.7400 13.5608
73.7500 16.9746
73.7600 11.8143
73.7700 10.9234
73.7800 17.9269
73.7900 16.7398
73.8000 13.4100
73.8100 12.6018
73.8200 17.1491
73.8300 12.8469
73.8400 15.7198
73.8500 14.3470
73.8600 19.7801
73.8700 20.2047
73.8800 14.3180
73.8900 21.9380
73.9000 18.0892
73.9100 14.9641
73.9200 7.6953
73.9300 13.7334
73.9400 18.3307
73.9500 17.8966
73.9600 19.2619
73.9700 8.4626
73.9800 10.7700
73.9900 13.9847
74.0000 16.0713
74.0100 25.6714
74.0200 13.7287
74.0300 14.7349
74.0400 13.3259
74.0500 17.9663
74.0600 7.6679
74.0700 10.4641
74.0800 16.9428
74.0900 15.8665
74.1000 16.0242
74.1100 16.3258
74.1200 11.8589
74.1300 11.4419
74.1400 9.9808
74.1500 13.2373
74.1600 16.0251
74.1700 16.8397
74.1800 14.3607
74.1900 17.5327
74.2000 15.1277
74.2100 16.0473
74.2200 21.1301
74.2300 17.4493
74.2400 15.2708
74.2500 14.7653
74.2600 11.3848
74.2700 15.7677
74.2800 10.0791
74.2900 9.3297
74.3000 15.6870
74.3100 17.4909
74.3200 12.5033
74.3300 8.9864
74.3400 11.4563
74.3500 15.0663
74.3600 13.2878
74.3700 19.1357
74.3800 10.7426
74.3900 14.1325
74.4000 10.3947
74.4100 21.7997
74.4200 15.5224
74.4300 15.6327
74.4400 16.9310
74.4500 24.0950
74.4600 12.8154
74.4700 15.7174
74.4800 14.6645
74.4900 13.3948
74.5000 12.1062
74.5100 9.1195
74.5200 12.3058
74.5300 10.0591
74.5400 17.4182
74.5500 13.4024
74.5600 14.4528
74.5700 17.7381
74.5800 19.7055
74.5900 18.0104
74.6000 13.9947
74.6100 16.4002
74.6200 8.4024
74.6300 15.1619
74.6400 12.0978
74.6500 11.8240
74.6600 16.7089
74.6700 10.9762
74.6800 19.0880
74.6900 19.0234
74.7000 17.4251
74.7100 15.9808
74.7200 14.2600
74.7300 13.3423
74.7400 14.8545
74.7500 14.6766
74.7600 9.9459
74.7700 8.6939
74.7800 15.9574
74.7900 13.4840
74.8000 14.9159
74.8100 10.8712
74.8200 16.7372
74.8300 13.7847
74.8400 14.4005
74.8500 12.5268
74.8600 16.2595
74.8700 12.6515
74.8800 13.3790
74.8900 9.6458
74.9000 8.8003
74.9100 15.4471
74.9200 17.0595
74.9300 11.8070
74.9400 10.4377
74.9500 10.0012
74.9600 11.6914
74.9700 14.7222
74.9800 18.7638
74.9900 14.3865
75.0000 13.1141
75.0100 6.9639
75.0200 4.6534
75.0300 12.2357
75.0400 5.6635
75.0500 17.1122
75.0600 11.2111
75.0700 14.8635
75.0800 7.2421
75.0900 9.6919
75.1000 9.3921
75.1100 15.9448
75.1200 21.8676
75.1300 24.1421
75.1400 19.0274
75.1500 11.6153
75.1600 13.4779
75.1700 15.9898
75.1800 13.6416
75.1900 13.6744
75.2000 16.5622
75.2100 14.4818
75.2200 12.5428
75.2300 13.9778
75.2400 15.9827
75.2500 14.3821
75.2600 13.6048
75.2700 12.3849
75.2800 11.0655
75.2900 16.1941
75.3000 14.2345
75.3100 21.6061
75.3200 12.1247
75.3300 12.0462
75.3400 23.3567
75.3500 16.7286
75.3600 22.4846
75.3700 14.4705
75.3800 16.3328
75.3900 15.0447
75.4000 15.7753
75.4100 12.3957
75.4200 15.6601
75.4300 24.5647
75.4400 13.0968
75.4500 13.2517
75.4600 12.6278
75.4700 19.7932
75.4800 9.7346
75.4900 10.0887
75.5000 10.2586
75.5100 13.3169
75.5200 13.1260
75.5300 12.5442
75.5400 11.7368
75.5500 14.0800
75.5600 9.2295
75.5700 19.5433
75.5800 18.8270
75.5900 16.5756
75.6000 11.3011
75.6100 19.6237
75.6200 16.4544
75.6300 21.0753
75.6400 12.0152
75.6500 22.4857
75.6600 13.0103
75.6700 21.1626
75.6800 9.3437
75.6900 14.7696
75.7000 15.5074
75.7100 14.8529
75.7200 12.2290
75.7300 21.4860
75.7400 11.4432
75.7500 13.4716
75.7600 8.9192
75.7700 11.5154
75.7800 10.2381
75.7900 15.2532
75.8000 12.5515
75.8100 8.1467
75.8200 14.4972
75.8300 15.0974
75.8400 18.1939
75.8500 10.7046
75.8600 12.4985
75.8700 20.3298
75.8800 12.3243
75.8900 9.5251
75.9000 12.5332
75.9100 17.1483
75.9200 15.6047
75.9300 6.6995
75.9400 12.2325
75.9500 13.4790
75.9600 13.5803
75.9700 13.6100
75.9800 12.2814
75.9900 15.0247
76.0000 16.1346
76.0100 9.0840
76.0200 15.1806
76.0300 13.9068
76.0400 11.8011
76.0500 8.5380
76.0600 26.4281
76.0700 17.0788
76.0800 24.4281
76.0900 12.6297
76.1000 18.8424
76.1100 11.2724
76.1200 13.8092
76.1300 11.8061
76.1400 10.7591
76.1500 14.5071
76.1600 14.2423
76.1700 14.2521
76.1800 20.4419
76.1900 16.6217
76.2000 12.2725
76.2100 13.2251
76.2200 9.7272
76.2300 18.1774
76.2400 10.8658
76.2500 12.2581
76.2600 14.1589
76.2700 15.3649
76.2800 12.8506
76.2900 14.5340
76.3000 15.3480
76.3100 18.2758
76.3200 17.0455
76.3300 12.1599
76.3400 19.7900
76.3500 14.6614
76.3600 15.7265
76.3700 10.6385
76.3800 12.3811
76.3900 17.4129
76.4000 9.2807
76.4100 13.0366
76.4200 13.6729
76.4300 13.8665
76.4400 13.7314
76.4500 7.1041
76.4600 17.1191
76.4700 18.9118
76.4800 13.4652
76.4900 19.8302
76.5000 5.7408
76.5100 13.8348
76.5200 14.4536
76.5300 15.2628
76.5400 9.7586
76.5500 8.5053
76.5600 8.4655
76.5700 15.6636
76.5800 19.3969
76.5900 12.9980
76.6000 16.9746
76.6100 15.6974
76.6200 12.1039
76.6300 14.3685
76.6400 16.8897
76.6500 11.1525
76.6600 18.2133
76.6700 14.0672
76.6800 12.8326
76.6900 15.1115
76.7000 12.7848
76.7100 9.8920
76.7200 14.9841
76.7300 8.7567
76.7400 15.2201
76.7500 12.0975
76.7600 11.1684
76.7700 8.1581
76.7800 9.6906
76.7900 7.7945
76.8000 6.4054
76.8100 14.9744
76.8200 13.7879
76.8300 12.9519
76.8400 14.3280
76.8500 14.2458
76.8600 12.4083
76.8700 12.2004
76.8800 11.6319
76.8900 14.6693
76.9000 13.1786
76.9100 13.4790
76.9200 19.7444
76.9300 13.9938
76.9400 10.5488
76.9500 15.4487
76.9600 19.7496
76.9700 14.5765
76.9800 8.2538
76.9900 8.9785
77.0000 6.5797
77.0100 13.8152
77.0200 8.7036
77.0300 10.5998
77.0400 10.8350
77.0500 13.1538
77.0600 10.2767
77.0700 8.2166
77.0800 21.5439
77.0900 15.5977
77.1000 10.8363
77.1100 21.0063
77.1200 24.8622
77.1300 19.2416
77.1400 13.8316
77.1500 18.1745
77.1600 10.1526
77.1700 11.8128
77.1800 9.0615
77.1900 16.0820
77.2000 7.9976
77.2100 15.9474
77.2200 13.8017
77.2300 11.7688
77.2400 10.9616
77.2500 13.2598
77.2600 13.8985
77.2700 11.2143
77.2800 16.4555
77.2900 12.0608
77.3000 10.0102
77.3100 12.2527
77.3200 14.3956
77.3300 10.1473
77.3400 17.6440
77.3500 13.2752
77.3600 18.3007
77.3700 17.1057
77.3800 19.5347
77.3900 24.5216
77.4000 13.0172
77.4100 12.5313
77.4200 16.5648
77.4300 12.1119
77.4400 16.7193
77.4500 15.7172
77.4600 9.1553
77.4700 11.0366
77.4800 17.3853
77.4900 13.5621
77.5000 9.6165
77.5100 15.1643
77.5200 19.2485
77.5300 17.3835
77.5400 13.0959
77.5500 19.9740
77.5600 12.9512
77.5700 20.5905
77.5800 13.8920
77.5900 15.7493
77.6000 10.5573
77.6100 15.6822
77.6200 15.6042
77.6300 12.3995
77.6400 15.5822
77.6500 16.5619
77.6600 16.1987
77.6700 19.1381
77.6800 16.7259
77.6900 13.7521
77.7000 21.1026
77.7100 13.2117
77.7200 13.3734
77.7300 9.1654
77.7400 5.5243
77.7500 18.4611
77.7600 14.2985
77.7700 8.1094
77.7800 21.4509
77.7900 21.6678
77.8000 22.3504
77.8100 20.2453
77.8200 21.7135
77.8300 19.0607
77.8400 20.2754
77.8500 11.9915
77.8600 13.0511
77.8700 13.5650
77.8800 16.5898
77.8900 16.4543
77.9000 11.3046
77.9100 23.7253
77.9200 8.7707
77.9300 19.7177
77.9400 13.2151
77.9500 17.1143
77.9600 14.4313
77.9700 11.6416
77.9800 23.1922
77.9900 12.4637
78.0000 12.1866
78.0100 10.4308
78.0200 13.1648
78.0300 9.1844
78.0400 13.9809
78.0500 13.6807
78.0600 16.5194
78.0700 14.8263
78.0800 14.2668
78.0900 11.5721
78.1000 11.7997
78.1100 16.8594
78.1200 9.5109
78.1300 16.7574
78.1400 17.1686
78.1500 16.7032
78.1600 23.6857
78.1700 14.1783
78.1800 19.7998
78.1900 16.9920
78.2000 13.8265
78.2100 7.7488
78.2200 8.8917
78.2300 14.8232
78.2400 16.1338
78.2500 12.4519
78.2600 11.6903
78.2700 9.9840
78.2800 10.6616
78.2900 8.7131
78.3000 11.7651
78.3100 14.1940
78.3200 11.3340
78.3300 15.3120
78.3400 10.5651
78.3500 15.6038
78.3600 15.9297
78.3700 15.1637
78.3800 12.8558
78.3900 6.4578
78.4000 20.2375
78.4100 21.7207
78.4200 15.0869
78.4300 15.1710
78.4400 16.3196
78.4500 14.0046
78.4600 10.4581
78.4700 12.6293
78.4800 15.6735
78.4900 11.3075
78.5000 9.6184
78.5100 11.3864
78.5200 14.1726
78.5300 19.3335
78.5400 14.4687
78.5500 12.9998
78.5600 12.6746
78.5700 13.2794
78.5800 10.5050
78.5900 12.3480
78.6000 13.1075
78.6100 13.0692
78.6200 15.6324
78.6300 13.2428
78.6400 14.6396
78.6500 8.4633
78.6600 13.6228
78.6700 12.6634
78.6800 16.9042
78.6900 14.1119
78.7000 12.8362
78.7100 10.9155
78.7200 18.0260
78.7300 19.7039
78.7400 9.3488
78.7500 11.4822
78.7600 10.3680
78.7700 13.9523
78.7800 8.0780
78.7900 15.9375
78.8000 19.3053
78.8100 14.8996
78.8200 13.1544
78.8300 15.5998
78.8400 17.0689
78.8500 10.4483
78.8600 22.4559
78.8700 12.7542
78.8800 16.6960
78.8900 11.3718
78.9000 22.4896
78.9100 13.3879
78.9200 10.9502
78.9300 17.0615
78.9400 9.4574
78.9500 19.6559
78.9600 12.4574
78.9700 10.8531
78.9800 5.8300
78.9900 13.1724
79.0000 10.8823
79.0100 15.9665
79.0200 14.4463
79.0300 12.1895
79.0400 11.4324
79.0500 13.9050
79.0600 10.4813
79.0700 13.4653
79.0800 15.1191
79.0900 14.5798
79.1000 13.0010
79.1100 21.4906
79.1200 13.8078
79.1300 22.7832
79.1400 13.9485
79.1500 18.4705
79.1600 10.6619
79.1700 10.5809
79.1800 13.3051
79.1900 20.7105
79.2000 15.2975
79.2100 17.7456
79.2200 13.1164
79.2300 18.4288
79.2400 9.9221
79.2500 15.8611
79.2600 9.9698
79.2700 19.1840
79.2800 7.9471
79.2900 17.5595
79.3000 21.9011
79.3100 11.6703
79.3200 13.8602
79.3300 13.4869
79.3400 21.4077
79.3500 16.1748
79.3600 14.0000
79.3700 11.5669
79.3800 13.2250
79.3900 12.2036
79.4000 17.6902
79.4100 16.7558
79.4200 13.1414
79.4300 10.6044
79.4400 18.7043
79.4500 11.0575
79.4600 6.6380
79.4700 18.0935
79.4800 15.3020
79.4900 13.8422
79.5000 10.6251
79.5100 15.5405
79.5200 19.3617
79.5300 15.2243
79.5400 17.9986
79.5500 16.9247
79.5600 17.1652
79.5700 16.7860
79.5800 15.9190
79.5900 12.7486
79.6000 12.1822
79.6100 17.0351
79.6200 15.2492
79.6300 15.0490
79.6400 11.5935
79.6500 14.4173
79.6600 11.0817
79.6700 14.5323
79.6800 18.5015
79.6900 23.6722
79.7000 8.6165
79.7100 10.1424
79.7200 10.4919
79.7300 14.2884
79.7400 9.9214
79.7500 15.8534
79.7600 17.3746
79.7700 9.3447
79.7800 17.3826
79.7900 8.8424
79.8000 15.2157
79.8100 17.8822
79.8200 19.6104
79.8300 20.8259
79.8400 19.6256
79.8500 17.4803
79.8600 21.5230
79.8700 8.5110
79.8800 16.4051
79.8900 17.0386
79.9000 12.7048
79.9100 13.5767
79.9200 19.0959
79.9300 15.6607
79.9400 15.1090
79.9500 18.1038
79.9600 14.7008
79.9700 10.9748
79.9800 14.0409
79.9900 17.6020
80.0000 24.4879
80.0100 11.5654
80.0200 20.3713
80.0300 11.7734
80.0400 8.0236
80.0500 14.9276
80.0600 9.5422
80.0700 12.5421
80.0800 24.5433
80.0900 11.0481
80.1000 16.3129
80.1100 16.9125
80.1200 15.7186
80.1300 11.0931
80.1400 21.4752
80.1500 16.7447
80.1600 15.8890
80.1700 7.5616
80.1800 13.7636
80.1900 14.8827
80.2000 16.9644
80.2100 17.0943
80.2200 13.9130
80.2300 12.2894
80.2400 14.3068
80.2500 20.6882
80.2600 18.0020
80.2700 17.4082
80.2800 16.2209
80.2900 13.8387
80.3000 9.2565
80.3100 14.4249
80.3200 11.8200
80.3300 10.6381
80.3400 14.8877
80.3500 8.4915
80.3600 8.7931
80.3700 14.2896
80.3800 17.0042
80.3900 15.2377
80.4000 10.8923
80.4100 11.3623
80.4200 15.2517
80.4300 9.3050
80.4400 7.6128
80.4500 9.2822
80.4600 15.1510
80.4700 9.8223
80.4800 14.7439
80.4900 16.5808
80.5000 16.7846
80.5100 17.0858
80.5200 18.4074
80.5300 21.4354
80.5400 12.5724
80.5500 14.5709
80.5600 12.8403
80.5700 15.0125
80.5800 7.9065
80.5900 9.1576
80.6000 10.4237
80.6100 16.6250
80.6200 8.8845
80.6300 20.6513
80.6400 11.4204
80.6500 13.5209
80.6600 13.7769
80.6700 15.7244
80.6800 10.3287
80.6900 16.1424
80.7000 12.2087
80.7100 14.6616
80.7200 17.8326
80.7300 12.8225
80.7400 8.2460
80.7500 11.4618
80.7600 11.2102
80.7700 14.1232
80.7800 13.5436
80.7900 15.8970
80.8000 14.7963
80.8100 12.0821
80.8200 17.2919
80.8300 9.7633
80.8400 14.6917
80.8500 10.2774
80.8600 15.2650
80.8700 9.4994
80.8800 16.3118
80.8900 10.4396
80.9000 14.6717
80.9100 13.9625
80.9200 10.8300
80.9300 11.4783
80.9400 19.7381
80.9500 13.9411
80.9600 6.5790
80.9700 15.9466
80.9800 14.7493
80.9900 11.1065
81.0000 13.9325
81.0100 15.3112
81.0200 15.7550
81.0300 19.6761
81.0400 11.0052
81.0500 16.1980
81.0600 20.6303
81.0700 13.9368
81.0800 8.7378
81.0900 16.4173
81.1000 21.1229
81.1100 19.0534
81.1200 15.5573
81.1300 13.8124
81.1400 10.6646
81.1500 16.1378
81.1600 8.4945
81.1700 13.5823
81.1800 12.6412
81.1900 14.1148
81.2000 14.3580
81.2100 16.0839
81.2200 15.8297
81.2300 12.0386
81.2400 14.3149
81.2500 13.9137
81.2600 20.3288
81.2700 16.9277
81.2800 12.8588
81.2900 16.2180
81.3000 17.5441
81.3100 11.3083
81.3200 16.5989
81.3300 15.2429
81.3400 14.1118
81.3500 21.1880
81.3600 12.1145
81.3700 11.1507
81.3800 14.7986
81.3900 19.2105
81.4000 17.0567
81.4100 18.6643
81.4200 13.1664
81.4300 11.9429
81.4400 18.8774
81.4500 13.5118
81.4600 13.2568
81.4700 17.7707
81.4800 14.5288
81.4900 14.8823
81.5000 17.4878
81.5100 18.0345
81.5200 16.4200
81.5300 14.2095
81.5400 10.1341
81.5500 11.3655
81.5600 10.2683
81.5700 12.1837
81.5800 14.5657
81.5900 13.1593
81.6000 16.6113
81.6100 15.6081
81.6200 24.6907
81.6300 15.5434
81.6400 15.2456
81.6500 18.3628
81.6600 15.5897
81.6700 12.4136
81.6800 13.6654
81.6900 16.4166
81.7000 9.3294
81.7100 13.8548
81.7200 13.5893
81.7300 22.4124
81.7400 15.9766
81.7500 20.9563
81.7600 8.5473
81.7700 13.7690
81.7800 18.6672
81.7900 15.7511
81.8000 20.8010
81.8100 14.8248
81.8200 18.0477
81.8300 13.4089
81.8400 18.7796
81.8500 15.7167
81.8600 20.7609
81.8700 18.7187
81.8800 25.8691
81.8900 25.7605
81.9000 36.4067
81.9100 34.9039
81.9200 32.8283
81.9300 37.0237
81.9400 37.1515
81.9500 43.2563
81.9600 45.1429
81.9700 54.6303
81.9800 52.6630
81.9900 74.4903
82.0000 58.5364
82.0100 73.8297
82.0200 97.0727
82.0300 100.7494
82.0400 85.6963
82.0500 103.7817
82.0600 108.2376
82.0700 109.0576
82.0800 116.9992
82.0900 125.0885
82.1000 123.1040
82.1100 126.5037
82.1200 105.0902
82.1300 108.2829
82.1400 91.8706
82.1500 94.0925
82.1600 92.5091
82.1700 93.1885
82.1800 73.2513
82.1900 71.9943
82.2000 58.2497
82.2100 70.7490
82.2200 60.6368
82.2300 47.6725
82.2400 55.0065
82.2500 46.9218
82.2600 41.3629
82.2700 36.4648
82.2800 42.2023
82.2900 34.9934
82.3000 37.0539
82.3100 28.6252
82.3200 42.9358
82.3300 32.6341
82.3400 23.1532
82.3500 30.7947
82.3600 26.8127
82.3700 14.4367
82.3800 20.2913
82.3900 16.3887
82.4000 25.1554
82.4100 17.2740
82.4200 16.9468
82.4300 19.2250
82.4400 22.8004
82.4500 12.0368
82.4600 16.0781
82.4700 22.8376
82.4800 21.1898
82.4900 19.1783
82.5000 17.3525
82.5100 20.8611
82.5200 17.4579
82.5300 12.9025
82.5400 14.0515
82.5500 16.2257
82.5600 19.9429
82.5700 15.7421
82.5800 14.9522
82.5900 11.3094
82.6000 15.4460
82.6100 15.7726
82.6200 16.5276
82.6300 17.1177
82.6400 16.7757
82.6500 13.4139
82.6600 15.4817
82.6700 10.3364
82.6800 12.7452
82.6900 14.1697
82.7000 21.5217
82.7100 12.3434
82.7200 13.9839
82.7300 13.8302
82.7400 14.4837
82.7500 18.0594
82.7600 15.3663
82.7700 12.7851
82.7800 18.6656
82.7900 14.5878
82.8000 15.0374
82.8100 18.3821
82.8200 16.7099
82.8300 18.0234
82.8400 10.4222
82.8500 15.1041
82.8600 19.4229
82.8700 16.6475
82.8800 14.3225
82.8900 12.1610
82.9000 14.5374
82.9100 13.2207
82.9200 18.9702
82.9300 13.0275
82.9400 18.8769
82.9500 12.9306
82.9600 16.9832
82.9700 13.8135
82.9800 26.0936
82.9900 22.8165
83.0000 17.2850
83.0100 17.9392
83.0200 15.0886
83.0300 10.0196
83.0400 11.4901
83.0500 14.9231
83.0600 13.4608
83.0700 16.5679
83.0800 11.2625
83.0900 27.6015
83.1000 14.0867
83.1100 10.6183
83.1200 15.4012
83.1300 16.1737
83.1400 16.9029
83.1500 14.8796
83.1600 21.7131
83.1700 18.5588
83.1800 13.0676
83.1900 17.4857
83.2000 10.4468
83.2100 19.7578
83.2200 17.1977
83.2300 18.9130
83.2400 11.8678
83.2500 16.0059
83.2600 7.7653
83.2700 10.1466
83.2800 12.7694
83.2900 9.2247
83.3000 13.0747
83.3100 11.9182
83.3200 15.4508
83.3300 14.6093
83.3400 14.8649
83.3500 13.4112
83.3600 10.6157
83.3700 9.2138
83.3800 9.3584
83.3900 16.2968
83.4000 9.5350
83.4100 15.4029
83.4200 17.4351
83.4300 19.1151
83.4400 14.5578
83.4500 11.0173
83.4600 16.4407
83.4700 16.0483
83.4800 16.3199
83.4900 20.6750
83.5000 21.3944
83.5100 15.1741
83.5200 17.1047
83.5300 11.0642
83.5400 15.6199
83.5500 10.3590
83.5600 12.6987
83.5700 12.5761
83.5800 10.1243
83.5900 10.3989
83.6000 8.7032
83.6100 15.0715
83.6200 15.1973
83.6300 9.1808
83.6400 11.5621
83.6500 11.6322
83.6600 14.1940
83.6700 14.0417
83.6800 12.2163
83.6900 9.6948
83.7000 11.5644
83.7100 7.4754
83.7200 11.3421
83.7300 11.9271
83.7400 13.6062
83.7500 8.0428
83.7600 5.2856
83.7700 14.2683
83.7800 13.6523
83.7900 18.2413
83.8000 14.3653
83.8100 10.2771
83.8200 7.9988
83.8300 14.3361
83.8400 12.5486
83.8500 11.5903
83.8600 10.0159
83.8700 13.9909
83.8800 10.5775
83.8900 9.2547
83.9000 17.8924
83.9100 9.2781
83.9200 13.8393
83.9300 16.4587
83.9400 15.1126
83.9500 17.5796
83.9600 10.7250
83.9700 14.5658
83.9800 9.6091
83.9900 14.4191
84.0000 15.6472
84.0100 8.6727
84.0200 15.5402
84.0300 12.2900
84.0400 16.9962
84.0500 17.8387
84.0600 16.0411
84.0700 13.4391
84.0800 13.6066
84.0900 22.2424
84.1000 13.1139
84.1100 17.0857
84.1200 7.8106
84.1300 9.8220
84.1400 13.6742
84.1500 16.0416
84.1600 18.3076
84.1700 16.0408
84.1800 11.0945
84.1900 6.6922
84.2000 10.5516
84.2100 16.0784
84.2200 10.8733
84.2300 14.5360
84.2400 8.6060
84.2500 13.3202
84.2600 5.4534
84.2700 17.9205
84.2800 13.4437
84.2900 10.7085
84.3000 8.3354
84.3100 8.0118
84.3200 12.6499
84.3300 18.6656
84.3400 10.6060
84.3500 16.2162
84.3600 15.5551
84.3700 14.2557
84.3800 15.4847
84.3900 14.4220
84.4000 14.9758
84.4100 14.1839
84.4200 12.9457
84.4300 19.4867
84.4400 20.0705
84.4500 15.7662
84.4600 17.2164
84.4700 22.5185
84.4800 15.2335
84.4900 14.6313
84.5000 16.0906
84.5100 14.7257
84.5200 9.9204
84.5300 19.0332
84.5400 12.0441
84.5500 10.3212
84.5600 8.3682
84.5700 13.6514
84.5800 9.0452
84.5900 12.1828
84.6000 14.9305
84.6100 21.3430
84.6200 10.7991
84.6300 11.7934
84.6400 16.4068
84.6500 12.5472
84.6600 11.1007
84.6700 15.8210
84.6800 15.8615
84.6900 14.0263
84.7000 11.8482
84.7100 6.2072
84.7200 14.7029
84.7300 11.7256
84.7400 13.3034
84.7500 9.3152
84.7600 18.3765
84.7700 16.5298
84.7800 13.9195
84.7900 15.2715
84.8000 15.5471
84.8100 13.0977
84.8200 14.0894
84.8300 10.2397
84.8400 13.6788
84.8500 16.3032
84.8600 10.0491
84.8700 16.5264
84.8800 9.1969
84.8900 6.3938
84.9000 10.8734
84.9100 19.6191
84.9200 13.1965
84.9300 13.3921
84.9400 13.9027
84.9500 15.2387
84.9600 11.8919
84.9700 12.5032
84.9800 14.8460
84.9900 14.6188
85.0000 11.4821
85.0100 11.7387
85.0200 12.6571
85.0300 17.3878
85.0400 15.3214
85.0500 12.8600
85.0600 8.9023
85.0700 19.3421
85.0800 17.4287
85.0900 11.8873
85.1000 12.1635
85.1100 15.2295
85.1200 16.9211
85.1300 12.8256
85.1400 10.1829
85.1500 18.0755
85.1600 9.1557
85.1700 15.7924
85.1800 11.7739
85.1900 9.6904
85.2000 12.3769
85.2100 12.3691
85.2200 12.6821
85.2300 15.4227
85.2400 20.8048
85.2500 12.5250
85.2600 15.6586
85.2700 21.5349
85.2800 12.1289
85.2900 18.4480
85.3000 16.8382
85.3100 13.2513
85.3200 11.7736
85.3300 13.2136
85.3400 13.8468
85.3500 19.5159
85.3600 22.1784
85.3700 20.7343
85.3800 15.7611
85.3900 18.0009
85.4000 15.4700
85.4100 13.1083
85.4200 12.6999
85.4300 10.0557
85.4400 12.8768
85.4500 14.9071
85.4600 16.9750
85.4700 11.3181
85.4800 15.4366
85.4900 13.2065
85.5000 11.5262
85.5100 12.3662
85.5200 9.1363
85.5300 15.8654
85.5400 9.9257
85.5500 14.2162
85.5600 11.2253
85.5700 14.8668
85.5800 10.8978
85.5900 13.9258
85.6000 13.2726
85.6100 20.0969
85.6200 14.7684
85.6300 14.1550
85.6400 15.6736
85.6500 11.5998
85.6600 19.2480
85.6700 13.4860
85.6800 13.0422
85.6900 12.0288
85.7000 15.1709
85.7100 14.2368
85.7200 13.6129
85.7300 13.1321
85.7400 14.3020
85.7500 11.5600
85.7600 18.1346
85.7700 7.3628
85.7800 17.8595
85.7900 14.0083
85.8000 12.3808
85.8100 12.9449
85.8200 20.1944
85.8300 13.5158
85.8400 17.8187
85.8500 11.1213
85.8600 12.3254
85.8700 10.7252
85.8800 16.9893
85.8900 18.1662
85.9000 8.2228
85.9100 14.2889
85.9200 10.5553
85.9300 14.7717
85.9400 14.2429
85.9500 13.8721
85.9600 12.8119
85.9700 16.8068
85.9800 7.2858
85.9900 12.4296
86.0000 15.7195
86.0100 14.8080
86.0200 23.0600
86.0300 10.3917
86.0400 12.5519
86.0500 15.2322
86.0600 11.2311
86.0700 5.9603
86.0800 15.4960
86.0900 10.7326
86.1000 16.2644
86.1100 7.5882
86.1200 11.1389
86.1300 12.4965
86.1400 18.8396
86.1500 12.9139
86.1600 12.0140
86.1700 6.9491
86.1800 14.4024
86.1900 8.8160
86.2000 10.7254
86.2100 15.1288
86.2200 10.5687
86.2300 16.0231
86.2400 11.6504
86.2500 9.6935
86.2600 14.9540
86.2700 11.8580
86.2800 11.5987
86.2900 10.8919
86.3000 8.8540
86.3100 11.6432
86.3200 8.9698
86.3300 10.7919
86.3400 8.6435
86.3500 6.2221
86.3600 10.4742
86.3700 9.6286
86.3800 9.0962
86.3900 11.7215
86.4000 12.8820
86.4100 14.9877
86.4200 15.6301
86.4300 14.4126
86.4400 12.2340
86.4500 19.3603
86.4600 13.8619
86.4700 16.6501
86.4800 7.9457
86.4900 14.4822
86.5000 15.9835
86.5100 16.2639
86.5200 23.6357
86.5300 13.6667
86.5400 10.5558
86.5500 13.8080
86.5600 16.7895
86.5700 18.7553
86.5800 9.6100
86.5900 7.1918
86.6000 8.8839
86.6100 8.9305
86.6200 12.8971
86.6300 13.7405
86.6400 5.9440
86.6500 12.0116
86.6600 11.4406
86.6700 19.2694
86.6800 8.1387
86.6900 9.7344
86.7000 10.4218
86.7100 11.9517
86.7200 9.1384
86.7300 14.7594
86.7400 13.3376
86.7500 14.7256
86.7600 20.6245
86.7700 15.0704
86.7800 24.3741
86.7900 16.1443
86.8000 12.0848
86.8100 10.6250
86.8200 16.8299
86.8300 12.1395
86.8400 14.1148
86.8500 10.0302
86.8600 11.3700
86.8700 9.2942
86.8800 17.8047
86.8900 14.0587
86.9000 15.0269
86.9100 12.8835
86.9200 8.5752
86.9300 11.4915
86.9400 18.7203
86.9500 15.3223
86.9600 14.4332
86.9700 12.0811
86.9800 16.1420
86.9900 11.0345
87.0000 15.2610
87.0100 13.4557
87.0200 18.2120
87.0300 18.5231
87.0400 7.9834
87.0500 13.7553
87.0600 10.2923
87.0700 15.5807
87.0800 10.9338
87.0900 14.5461
87.1000 12.1419
87.1100 17.4498
87.1200 12.2835
87.1300 15.4113
87.1400 10.3714
87.1500 12.7338
87.1600 14.9172
87.1700 8.7073
87.1800 10.7418
87.1900 16.7759
87.2000 23.1716
87.2100 12.9825
87.2200 9.6851
87.2300 13.0283
87.2400 14.6700
87.2500 8.9092
87.2600 15.0385
87.2700 16.3184
87.2800 11.3793
87.2900 10.4308
87.3000 8.4276
87.3100 10.9797
87.3200 6.8404
87.3300 16.7058
87.3400 14.9348
87.3500 17.7057
87.3600 16.3092
87.3700 13.1304
87.3800 10.4766
87.3900 16.8736
87.4000 18.1350
87.4100 9.8228
87.4200 16.6790
87.4300 22.3495
87.4400 16.8934
87.4500 9.9094
87.4600 12.7337
87.4700 10.7630
87.4800 16.0925
87.4900 19.3621
87.5000 13.8074
87.5100 20.8889
87.5200 12.7799
87.5300 9.9931
87.5400 12.3529
87.5500 12.4874
87.5600 9.0393
87.5700 16.4664
87.5800 14.1110
87.5900 8.8965
87.6000 12.3974
87.6100 11.6747
87.6200 13.4113
87.6300 9.0028
87.6400 10.8328
87.6500 14.9507
87.6600 11.2573
87.6700 13.6132
87.6800 16.5802
87.6900 21.4599
87.7000 17.7207
87.7100 13.7189
87.7200 12.6262
87.7300 13.6485
87.7400 12.6903
87.7500 9.2436
87.7600 19.2054
87.7700 12.1722
87.7800 12.5329
87.7900 13.4688
87.8000 9.3226
87.8100 9.0989
87.8200 18.3303
87.8300 17.5513
87.8400 16.9899
87.8500 13.9792
87.8600 21.5337
87.8700 17.2857
87.8800 18.6571
87.8900 19.5531
87.9000 23.0780
87.9100 17.3417
87.9200 32.8218
87.9300 15.1604
87.9400 20.6638
87.9500 9.3709
87.9600 15.8167
87.9700 12.1645
87.9800 15.4498
87.9900 10.1794
88.0000 11.9680
88.0100 11.1845
88.0200 10.1928
88.0300 12.4149
88.0400 14.8830
88.0500 22.1185
88.0600 9.4106
88.0700 21.4482
88.0800 18.1536
88.0900 9.4627
88.1000 8.5006
88.1100 7.9192
88.1200 14.4763
88.1300 15.5470
88.1400 10.4288
88.1500 6.4027
88.1600 9.9635
88.1700 13.3359
88.1800 20.3291
88.1900 13.7229
88.2000 13.9661
88.2100 11.5909
88.2200 17.6316
88.2300 7.5239
88.2400 16.1637
88.2500 11.4071
88.2600 11.3088
88.2700 12.3201
88.2800 23.6669
88.2900 12.3358
88.3000 12.2217
88.3100 20.5248
88.3200 14.5910
88.3300 14.9882
88.3400 15.6686
88.3500 12.6234
88.3600 18.6911
88.3700 22.1047
88.3800 17.2937
88.3900 10.5288
88.4000 15.9149
88.4100 8.9106
88.4200 15.0959
88.4300 12.5258
88.4400 13.9764
88.4500 14.1765
88.4600 10.0447
88.4700 11.4852
88.4800 7.5362
88.4900 13.8531
88.5000 16.5324
88.5100 12.6811
88.5200 14.8137
88.5300 14.3023
88.5400 19.8536
88.5500 11.7286
88.5600 18.7638
88.5700 9.5973
88.5800 15.6643
88.5900 14.5095
88.6000 14.2388
88.6100 18.2242
88.6200 19.2415
88.6300 18.6320
88.6400 17.0748
88.6500 10.1778
88.6600 7.9797
88.6700 14.1854
88.6800 10.1686
88.6900 14.2233
88.7000 14.7993
88.7100 12.3557
88.7200 12.2280
88.7300 15.3868
88.7400 9.6289
88.7500 16.6782
88.7600 17.7175
88.7700 20.4523
88.7800 8.8946
88.7900 11.0205
88.8000 14.8982
88.8100 8.5526
88.8200 14.2874
88.8300 17.3227
88.8400 15.1402
88.8500 16.6071
88.8600 7.7204
88.8700 17.1927
88.8800 15.9321
88.8900 17.5965
88.9000 14.4754
88.9100 9.5797
88.9200 20.6316
88.9300 13.7182
88.9400 16.2412
88.9500 13.8712
88.9600 9.9474
88.9700 9.9862
88.9800 15.1735
88.9900 18.2704
89.0000 13.5628
89.0100 12.6254
89.0200 14.9124
89.0300 16.0533
89.0400 13.1646
89.0500 13.1561
89.0600 15.5193
89.0700 10.3155
89.0800 11.7926
89.0900 21.4316
89.1000 13.0336
89.1100 8.8950
89.1200 13.5559
89.1300 7.0934
89.1400 13.6974
89.1500 17.5304
89.1600 9.6439
89.1700 11.6148
89.1800 14.4753
89.1900 14.5019
89.2000 12.1992
89.2100 16.2151
89.2200 18.0526
89.2300 10.0040
89.2400 13.6715
89.2500 11.7891
89.2600 14.8956
89.2700 10.2179
89.2800 12.8634
89.2900 18.7072
89.3000 11.3088
89.3100 10.3981
89.3200 12.5676
89.3300 13.5360
89.3400 10.7436
89.3500 16.6569
89.3600 14.4940
89.3700 13.2916
89.3800 15.4334
89.3900 17.4186
89.4000 12.6232
89.4100 3.5564
89.4200 16.2226
89.4300 14.5917
89.4400 16.9205
89.4500 11.5130
89.4600 14.9408
89.4700 9.3598
89.4800 14.9635
89.4900 10.8600
89.5000 11.2772
89.5100 19.4198
89.5200 16.7607
89.5300 18.3228
89.5400 15.2319
89.5500 10.7567
89.5600 18.1332
89.5700 10.8606
89.5800 11.3061
89.5900 16.8267
89.6000 15.2871
89.6100 15.3179
89.6200 13.3009
89.6300 12.0445
89.6400 11.5763
89.6500 15.9606
89.6600 14.4350
89.6700 16.7396
89.6800 15.1464
89.6900 13.6944
89.7000 17.2285
89.7100 15.0943
89.7200 10.9971
89.7300 12.9534
89.7400 9.2688
89.7500 10.9332
89.7600 14.6223
89.7700 14.6740
89.7800 10.9732
89.7900 15.4433
89.8000 17.4224
89.8100 18.7224
89.8200 14.4548
89.8300 20.5928
89.8400 7.6377
89.8500 15.7735
89.8600 17.3674
89.8700 14.7247
89.8800 8.5479
89.8900 6.5102
89.9000 12.4631
89.9100 18.0353
89.9200 12.6066
89.9300 10.2967
89.9400 14.4525
89.9500 8.3812
89.9600 7.1814
89.9700 11.2821
89.9800 16.5199
89.9900 16.8042
90.0000 10.3494
90.0100 7.1728
90.0200 11.0599
90.0300 11.4482
90.0400 14.4179
90.0500 17.1048
90.0600 9.6206
90.0700 10.3632
90.0800 12.8599
90.0900 13.1781
90.1000 17.4737
90.1100 12.5873
90.1200 13.2526
90.1300 14.8562
90.1400 13.6493
90.1500 11.5091
90.1600 9.4614
90.1700 20.2152
90.1800 18.6779
90.1900 10.5986
90.2000 8.2047
90.2100 11.3818
90.2200 10.1634
90.2300 9.5505
90.2400 10.7539
90.2500 15.7785
90.2600 17.4290
90.2700 13.5125
90.2800 7.9308
90.2900 11.0097
90.3000 12.6850
90.3100 12.3909
90.3200 9.3467
90.3300 15.1362
90.3400 14.8543
90.3500 9.4196
90.3600 15.2337
90.3700 10.5007
90.3800 15.3343
90.3900 9.6510
90.4000 16.6395
90.4100 9.6698
90.4200 18.5823
90.4300 16.8666
90.4400 10.3123
90.4500 17.4903
90.4600 14.4511
90.4700 12.4571
90.4800 16.3668
90.4900 9.1509
90.5000 13.4988
90.5100 15.7635
90.5200 16.8136
90.5300 29.6889
90.5400 23.9475
90.5500 19.3576
90.5600 12.1144
90.5700 22.2662
90.5800 17.8954
90.5900 21.4066
90.6000 15.4400
90.6100 15.9777
90.6200 13.3028
90.6300 11.7379
90.6400 11.2372
90.6500 11.5434
90.6600 7.4955
90.6700 8.1444
90.6800 8.2642
90.6900 15.7966
90.7000 17.0810
90.7100 15.4122
90.7200 19.5322
90.7300 16.5544
90.7400 15.6763
90.7500 13.5094
90.7600 7.7481
90.7700 12.8822
90.7800 13.2239
90.7900 8.9287
90.8000 13.3976
90.8100 10.2648
90.8200 22.6184
90.8300 17.7192
90.8400 11.5739
90.8500 15.9863
90.8600 16.7574
90.8700 9.3458
90.8800 17.1707
90.8900 10.0966
90.9000 19.9173
90.9100 12.0272
90.9200 22.4642
90.9300 18.2129
90.9400 20.3477
90.9500 13.5124
90.9600 10.0931
90.9700 15.4591
90.9800 19.9045
90.9900 12.6537
91.0000 18.4347
91.0100 13.9801
91.0200 17.2173
91.0300 12.1822
91.0400 15.9137
91.0500 11.1071
91.0600 13.2693
91.0700 13.2722
91.0800 10.4356
91.0900 6.8105
91.1000 15.0203
91.1100 9.9831
91.1200 12.7828
91.1300 18.4902
91.1400 12.1009
91.1500 8.3834
91.1600 18.0327
91.1700 15.9768
91.1800 18.3959
91.1900 12.6581
91.2000 17.3047
91.2100 11.3704
91.2200 19.2467
91.2300 13.6855
91.2400 12.6831
91.2500 15.2947
91.2600 7.8952
91.2700 11.9979
91.2800 16.6512
91.2900 15.2401
91.3000 14.0234
91.3100 16.8460
91.3200 16.2580
91.3300 12.1228
91.3400 20.4592
91.3500 13.9281
91.3600 17.0218
91.3700 20.6293
91.3800 16.4419
91.3900 15.6603
91.4000 15.7685
91.4100 21.6006
91.4200 15.9721
91.4300 17.4722
91.4400 10.0452
91.4500 9.9309
91.4600 15.6209
91.4700 14.8869
91.4800 12.6515
91.4900 10.0326
91.5000 11.4143
91.5100 12.0285
91.5200 17.4175
91.5300 14.6083
91.5400 16.5891
91.5500 10.7110
91.5600 15.6160
91.5700 11.2243
91.5800 9.0690
91.5900 13.9794
91.6000 11.4315
91.6100 20.0221
91.6200 8.7018
91.6300 19.8179
91.6400 13.0770
91.6500 14.7765
91.6600 13.4612
91.6700 11.5781
91.6800 7.0141
91.6900 17.7084
91.7000 17.1423
91.7100 21.8742
91.7200 18.4881
91.7300 20.0011
91.7400 10.8149
91.7500 18.5490
91.7600 17.2829
91.7700 16.5379
91.7800 16.3986
91.7900 13.7121
91.8000 17.7028
91.8100 17.3290
91.8200 14.1649
91.8300 17.8055
91.8400 17.0207
91.8500 13.6543
91.8600 15.3733
91.8700 17.9344
91.8800 16.0242
91.8900 20.5420
91.9000 13.0455
91.9100 16.9429
91.9200 19.9715
91.9300 12.9340
91.9400 14.7089
91.9500 13.8514
91.9600 20.8947
91.9700 16.5347
91.9800 17.5311
91.9900 13.8952
92.0000 12.6039
92.0100 16.6625
92.0200 14.9850
92.0300 11.6422
92.0400 14.3240
92.0500 11.2614
92.0600 16.3336
92.0700 8.9753
92.0800 21.5576
92.0900 15.9459
92.1000 14.2942
92.1100 9.5052
92.1200 13.4209
92.1300 18.0716
92.1400 13.6863
92.1500 17.0037
92.1600 21.1660
92.1700 11.3757
92.1800 12.2971
92.1900 10.7370
92.2000 10.2548
92.2100 16.5332
92.2200 15.7858
92.2300 9.9898
92.2400 10.8673
92.2500 11.1122
92.2600 9.3125
92.2700 13.3333
92.2800 12.6583
92.2900 12.7167
92.3000 14.9485
92.3100 12.3808
92.3200 11.3997
92.3300 14.1453
92.3400 11.2556
92.3500 14.0406
92.3600 12.6784
92.3700 18.7676
92.3800 10.3812
92.3900 5.7029
92.4000 15.7585
92.4100 14.2696
92.4200 13.1253
92.4300 9.3164
92.4400 10.7345
92.4500 15.4052
92.4600 10.8258
92.4700 7.5985
92.4800 23.4571
92.4900 13.4217
92.5000 15.4919
92.5100 14.0525
92.5200 19.4598
92.5300 18.7620
92.5400 15.5424
92.5500 14.1543
92.5600 9.4395
92.5700 11.1953
92.5800 8.0792
92.5900 17.2596
92.6000 10.4592
92.6100 7.1439
92.6200 9.6547
92.6300 9.9788
92.6400 9.3799
92.6500 8.6124
92.6600 7.3536
92.6700 16.6763
92.6800 13.6412
92.6900 16.6654
92.7000 8.6496
92.7100 14.6323
92.7200 8.3832
92.7300 9.4510
92.7400 7.7355
92.7500 14.9851
92.7600 11.4936
92.7700 14.5362
92.7800 13.6685
92.7900 12.4589
92.8000 14.9330
92.8100 21.8386
92.8200 18.5927
92.8300 10.7546
92.8400 12.6690
92.8500 16.1169
92.8600 18.7329
92.8700 18.0968
92.8800 11.4101
92.8900 12.1851
92.9000 14.5810
92.9100 10.5615
92.9200 16.5804
92.9300 13.2573
92.9400 14.6354
92.9500 15.9409
92.9600 18.0439
92.9700 9.4956
92.9800 15.8191
92.9900 14.1939
93.0000 11.0323
93.0100 10.8021
93.0200 13.2457
93.0300 17.4439
93.0400 11.6187
93.0500 7.1231
93.0600 15.1294
93.0700 12.9585
93.0800 11.3203
93.0900 12.6012
93.1000 9.6400
93.1100 14.7197
93.1200 10.9685
93.1300 17.6810
93.1400 13.1529
93.1500 11.4101
93.1600 13.1472
93.1700 12.6649
93.1800 13.2427
93.1900 14.7150
93.2000 12.4487
93.2100 11.7522
93.2200 9.9398
93.2300 12.5766
93.2400 11.9000
93.2500 12.2454
93.2600 9.6188
93.2700 13.5080
93.2800 10.9502
93.2900 17.6668
93.3000 12.0354
93.3100 14.3516
93.3200 15.8961
93.3300 12.7004
93.3400 15.6123
93.3500 15.8336
93.3600 7.8630
93.3700 18.3863
93.3800 22.0667
93.3900 18.3048
93.4000 13.7773
93.4100 9.1554
93.4200 14.3375
93.4300 10.2708
93.4400 13.2243
93.4500 13.9846
93.4600 20.2953
93.4700 12.5006
93.4800 8.8844
93.4900 12.0762
93.5000 15.3544
93.5100 15.7890
93.5200 6.9416
93.5300 18.5642
93.5400 11.4835
93.5500 16.2713
93.5600 20.0115
93.5700 14.1596
93.5800 17.0037
93.5900 15.3046
93.6000 8.3994
93.6100 4.3191
93.6200 17.7721
93.6300 11.0755
93.6400 13.0635
93.6500 14.7644
93.6600 5.7379
93.6700 10.4008
93.6800 14.0498
93.6900 11.5365
93.7000 13.6238
93.7100 16.3421
93.7200 10.8862
93.7300 14.9793
93.7400 16.8944
93.7500 6.8419
93.7600 12.3200
93.7700 14.6322
93.7800 16.9495
93.7900 11.6480
93.8000 10.1697
93.8100 11.5662
93.8200 11.7032
93.8300 10.6236
93.8400 13.1824
93.8500 15.9627
93.8600 15.1368
93.8700 10.5760
93.8800 12.8846
93.8900 7.2522
93.9000 16.1389
93.9100 10.7592
93.9200 6.6500
93.9300 6.9919
93.9400 13.5529
93.9500 16.0125
93.9600 19.9218
93.9700 13.6652
93.9800 11.5469
93.9900 14.8183
94.0000 20.4571
94.0100 23.3056
94.0200 17.6869
94.0300 11.8183
94.0400 9.3783
94.0500 7.7568
94.0600 12.2466
94.0700 19.4575
94.0800 18.1250
94.0900 18.4128
94.1000 20.2327
94.1100 8.1909
94.1200 15.6291
94.1300 14.3676
94.1400 12.8568
94.1500 14.2704
94.1600 11.7630
94.1700 18.1409
94.1800 13.1726
94.1900 9.4185
94.2000 9.9417
94.2100 9.2965
94.2200 16.7439
94.2300 13.6933
94.2400 10.3622
94.2500 17.6468
94.2600 14.4539
94.2700 16.4209
94.2800 17.3552
94.2900 7.5884
94.3000 11.8859
94.3100 14.9807
94.3200 14.3863
94.3300 17.1131
94.3400 15.3330
94.3500 9.9057
94.3600 6.7271
94.3700 9.0377
94.3800 15.9612
94.3900 12.7784
94.4000 14.8655
94.4100 15.0324
94.4200 10.6964
94.4300 16.4825
94.4400 20.0163
94.4500 14.8093
94.4600 12.0552
94.4700 11.2027
94.4800 17.1363
94.4900 11.6977
94.5000 24.2060
94.5100 13.2492
94.5200 21.8759
94.5300 16.7466
94.5400 24.4704
94.5500 13.9999
94.5600 14.5647
94.5700 21.5964
94.5800 14.9466
94.5900 9.0461
94.6000 10.3575
94.6100 13.2928
94.6200 17.9756
94.6300 16.1235
94.6400 11.9266
94.6500 15.9818
94.6600 11.2987
94.6700 13.5335
94.6800 9.9461
94.6900 11.4145
94.7000 20.5100
94.7100 11.8007
94.7200 7.7997
94.7300 19.3134
94.7400 11.1526
94.7500 12.4088
94.7600 14.1095
94.7700 22.3136
94.7800 18.6215
94.7900 22.2159
94.8000 16.4005
94.8100 14.8537
94.8200 20.4759
94.8300 13.2198
94.8400 8.4108
94.8500 12.4739
94.8600 11.4903
94.8700 14.8040
94.8800 16.6450
94.8900 13.9357
94.9000 7.2063
94.9100 8.8638
94.9200 14.1996
94.9300 9.2243
94.9400 16.5225
94.9500 17.1767
94.9600 9.9243
94.9700 14.7615
94.9800 10.5152
94.9900 11.9003
95.0000 14.6750
95.0100 13.0720
95.0200 12.8491
95.0300 15.9084
95.0400 8.4810
95.0500 18.6216
95.0600 18.3887
95.0700 14.9726
95.0800 15.4259
95.0900 22.1841
95.1000 22.8008
95.1100 12.9892
95.1200 13.2369
95.1300 12.2044
95.1400 15.0258
95.1500 10.4315
95.1600 13.7127
95.1700 11.1718
95.1800 10.9884
95.1900 20.8589
95.2000 16.8944
95.2100 14.5646
95.2200 11.1491
95.2300 12.9227
95.2400 6.4171
95.2500 8.7193
95.2600 16.5670
95.2700 10.4286
95.2800 12.2647
95.2900 8.1698
95.3000 14.7002
95.3100 17.5059
95.3200 10.8293
95.3300 12.3961
95.3400 10.4690
95.3500 10.6237
95.3600 8.4655
95.3700 13.6349
95.3800 13.7948
95.3900 14.8396
95.4000 15.2766
95.4100 15.8047
95.4200 15.5920
95.4300 18.2037
95.4400 15.6873
95.4500 11.1135
95.4600 13.6464
95.4700 15.1704
95.4800 11.0015
95.4900 17.0436
95.5000 17.2597
95.5100 11.4975
95.5200 16.2000
95.5300 20.2432
95.5400 12.0690
95.5500 12.1889
95.5600 22.4098
95.5700 8.3930
95.5800 16.1550
95.5900 12.5921
95.6000 8.0933
95.6100 16.5458
95.6200 10.4958
95.6300 6.9736
95.6400 14.1253
95.6500 13.3113
95.6600 9.7937
95.6700 13.3184
95.6800 13.2184
95.6900 12.1057
95.7000 11.1802
95.7100 8.7784
95.7200 15.3261
95.7300 13.1025
95.7400 16.6689
95.7500 16.4068
95.7600 15.2081
95.7700 6.4984
95.7800 24.3424
95.7900 16.7504
95.8000 20.5946
95.8100 12.8036
95.8200 12.5354
95.8300 17.4216
95.8400 13.0461
95.8500 7.1845
95.8600 10.6348
95.8700 6.4646
95.8800 17.2662
95.8900 15.5128
95.9000 9.6399
95.9100 12.8952
95.9200 13.5280
95.9300 13.9379
95.9400 7.6408
95.9500 12.3759
95.9600 19.3526
95.9700 11.8781
95.9800 13.4650
95.9900 13.1348
96.0000 13.5511
96.0100 20.1743
96.0200 12.1937
96.0300 12.9893
96.0400 20.9313
96.0500 18.2868
96.0600 18.3018
96.0700 24.2766
96.0800 22.2925
96.0900 20.5690
96.1000 11.1942
96.1100 12.8045
96.1200 16.2781
96.1300 12.7052
96.1400 12.0862
96.1500 17.1822
96.1600 15.7010
96.1700 13.5355
96.1800 12.6814
96.1900 13.2454
96.2000 22.9648
96.2100 15.3685
96.2200 14.3780
96.2300 8.1990
96.2400 13.2050
96.2500 10.7401
96.2600 16.6814
96.2700 16.3020
96.2800 16.2281
96.2900 11.0518
96.3000 15.9890
96.3100 15.0201
96.3200 14.3447
96.3300 9.8041
96.3400 17.4454
96.3500 18.9142
96.3600 13.5378
96.3700 18.6828
96.3800 11.2606
96.3900 16.7822
96.4000 8.9690
96.4100 9.3905
96.4200 14.8525
96.4300 9.5778
96.4400 11.3100
96.4500 11.4851
96.4600 9.7449
96.4700 14.4877
96.4800 17.0212
96.4900 13.2767
96.5000 14.7245
96.5100 12.8525
96.5200 6.4850
96.5300 9.8251
96.5400 12.3189
96.5500 9.6794
96.5600 16.0281
96.5700 15.4635
96.5800 5.8461
96.5900 15.2590
96.6000 20.7145
96.6100 17.6874
96.6200 16.5384
96.6300 19.6410
96.6400 11.9708
96.6500 10.8449
96.6600 18.1597
96.6700 15.4610
96.6800 13.5248
96.6900 14.9868
96.7000 16.2589
96.7100 12.2614
96.7200 12.5349
96.7300 19.5693
96.7400 22.3108
96.7500 15.7756
96.7600 9.3518
96.7700 17.7479
96.7800 9.2534
96.7900 18.7440
96.8000 9.0967
96.8100 18.1907
96.8200 12.1808
96.8300 16.3563
96.8400 15.4592
96.8500 23.4295
96.8600 10.6230
96.8700 15.1917
96.8800 15.6175
96.8900 16.9628
96.9000 16.8574
96.9100 14.4691
96.9200 16.4131
96.9300 14.2421
96.9400 18.6775
96.9500 11.5319
96.9600 7.7025
96.9700 15.2825
96.9800 7.8813
96.9900 9.6530
97.0000 13.9941
97.0100 13.7431
97.0200 14.9105
97.0300 19.0140
97.0400 9.9055
97.0500 7.0973
97.0600 16.2345
97.0700 14.9439
97.0800 6.9475
97.0900 11.5300
97.1000 13.6206
97.1100 9.5939
97.1200 8.8753
97.1300 9.2851
97.1400 14.2905
97.1500 12.9511
97.1600 15.4952
97.1700 11.5757
97.1800 14.4128
97.1900 12.5096
97.2000 12.9452
97.2100 11.6377
97.2200 7.7045
97.2300 11.2224
97.2400 11.9818
97.2500 19.8001
97.2600 15.7259
97.2700 11.6041
97.2800 16.1985
97.2900 12.4300
97.3000 15.2175
97.3100 12.6918
97.3200 16.5644
97.3300 15.7137
97.3400 18.6850
97.3500 19.1140
97.3600 11.7299
97.3700 23.5427
97.3800 13.0686
97.3900 15.8887
97.4000 17.9319
97.4100 14.3902
97.4200 10.5652
97.4300 6.5432
97.4400 9.0612
97.4500 12.1081
97.4600 15.7019
97.4700 15.1775
97.4800 12.5766
97.4900 11.7523
97.5000 11.0705
97.5100 15.7059
97.5200 10.5000
97.5300 12.3640
97.5400 16.2559
97.5500 12.0894
97.5600 12.2754
97.5700 17.1083
97.5800 14.5984
97.5900 11.1774
97.6000 14.1091
97.6100 9.8687
97.6200 15.8589
97.6300 19.5824
97.6400 13.6239
97.6500 13.3207
97.6600 17.5692
97.6700 11.3839
97.6800 19.4576
97.6900 15.8953
97.7000 15.0675
97.7100 11.9661
97.7200 10.9080
97.7300 12.1433
97.7400 17.2166
97.7500 20.0443
97.7600 13.5050
97.7700 10.3968
97.7800 14.9185
97.7900 18.2592
97.8000 6.8548
97.8100 15.9692
97.8200 14.5478
97.8300 14.9966
97.8400 12.0950
97.8500 15.6297
97.8600 16.0304
97.8700 14.6408
97.8800 11.8814
97.8900 11.9780
97.9000 17.8015
97.9100 9.3683
97.9200 11.2004
97.9300 17.5191
97.9400 9.1321
97.9500 9.2854
97.9600 10.9134
97.9700 14.6215
97.9800 12.0793
97.9900 17.0050
98.0000 13.3749
98.0100 8.3505
98.0200 16.9394
98.0300 17.4191
98.0400 12.1108
98.0500 13.6420
98.0600 16.9015
98.0700 14.5705
98.0800 12.9543
98.0900 16.7131
98.1000 19.3748
98.1100 19.5833
98.1200 9.4319
98.1300 11.4346
98.1400 14.8345
98.1500 14.7208
98.1600 15.2611
98.1700 14.3760
98.1800 19.1815
98.1900 19.4636
98.2000 17.4523
98.2100 16.7248
98.2200 15.4434
98.2300 15.7618
98.2400 19.6614
98.2500 11.9067
98.2600 16.0011
98.2700 17.0336
98.2800 11.8565
98.2900 17.4334
98.3000 19.3242
98.3100 12.1295
98.3200 17.4305
98.3300 16.0499
98.3400 9.9467
98.3500 19.6551
98.3600 16.0362
98.3700 15.5599
98.3800 17.0301
98.3900 16.4307
98.4000 14.1273
98.4100 21.3698
98.4200 19.8734
98.4300 23.9980
98.4400 25.8410
98.4500 29.3133
98.4600 31.9600
98.4700 31.6807
98.4800 24.2625
98.4900 37.2719
98.5000 39.0710
98.5100 39.5790
98.5200 32.8971
98.5300 48.6539
98.5400 49.3704
98.5500 61.2653
98.5600 43.7904
98.5700 58.4708
98.5800 43.4158
98.5900 60.3794
98.6000 67.2089
98.6100 59.4946
98.6200 54.9521
98.6300 66.0565
98.6400 70.2306
98.6500 53.8101
98.6600 67.7393
98.6700 65.7561
98.6800 57.9701
98.6900 59.6325
98.7000 63.7807
98.7100 53.8784
98.7200 48.1435
98.7300 52.0369
98.7400 34.2695
98.7500 41.0469
98.7600 39.1656
98.7700 38.9298
98.7800 40.9720
98.7900 29.5376
98.8000 41.5488
98.8100 29.0748
98.8200 33.4198
98.8300 26.4411
98.8400 23.6044
98.8500 23.9651
98.8600 23.4034
98.8700 27.0462
98.8800 20.8715
98.8900 22.6955
98.9000 19.3762
98.9100 19.2919
98.9200 23.4491
98.9300 28.3198
98.9400 29.3919
98.9500 26.4080
98.9600 19.6607
98.9700 28.0270
98.9800 25.9696
98.9900 23.1697
99.0000 24.1350
99.0100 17.9547
99.0200 17.6857
99.0300 19.9545
99.0400 19.1179
99.0500 17.6095
99.0600 15.9224
99.0700 16.9717
99.0800 13.5757
99.0900 20.7057
99.1000 21.0188
99.1100 18.0318
99.1200 12.8019
99.1300 15.3332
99.1400 10.1614
99.1500 15.3560
99.1600 13.3198
99.1700 12.6026
99.1800 18.6750
99.1900 11.6277
99.2000 11.8582
99.2100 8.6436
99.2200 16.4326
99.2300 16.4916
99.2400 17.2162
99.2500 17.5512
99.2600 13.0923
99.2700 12.2924
99.2800 13.0881
99.2900 10.1039
99.3000 7.9298
99.3100 9.0776
99.3200 6.0008
99.3300 13.8435
99.3400 15.1443
99.3500 9.6999
99.3600 13.7241
99.3700 18.1307
99.3800 10.4284
99.3900 10.2936
99.4000 5.8960
99.4100 18.8114
99.4200 14.2736
99.4300 11.6470
99.4400 11.4154
99.4500 10.7941
99.4600 14.8524
99.4700 11.7154
99.4800 13.6767
99.4900 18.6952
99.5000 13.4187
99.5100 18.8645
99.5200 8.5506
99.5300 16.2147
99.5400 12.5771
99.5500 16.3205
99.5600 21.7942
99.5700 15.4520
99.5800 12.4297
99.5900 26.6035
99.6000 10.7148
99.6100 13.2874
99.6200 13.4469
99.6300 13.0565
99.6400 15.1022
99.6500 14.2092
99.6600 19.4486
99.6700 10.6460
99.6800 10.9013
99.6900 19.3897
99.7000 9.0885
99.7100 9.5550
99.7200 18.5532
99.7300 14.8561
99.7400 19.4702
99.7500 18.0240
99.7600 14.5371
99.7700 17.7177
99.7800 23.3184
99.7900 16.7606
99.8000 10.6467
99.8100 12.3940
99.8200 7.5645
99.8300 13.7827
99.8400 16.0863
99.8500 12.4337
99.8600 10.9838
99.8700 11.6280
99.8800 15.1014
99.8900 10.0344
99.9000 13.8373
99.9100 18.5631
99.9200 22.0536
99.9300 15.8974
99.9400 5.6798
99.9500 14.4463
99.9600 17.2695
99.9700 11.5694
99.9800 13.8839
99.9900 17.2070
100.0000 18.1524
100.0100 16.4326
100.0200 7.8488
100.0300 13.5340
100.0400 15.2901
100.0500 12.0613
100.0600 14.6636
100.0700 17.5409
100.0800 17.6336
100.0900 19.1063
100.1000 10.5803
100.1100 18.5726
100.1200 25.2311
100.1300 18.0914
100.1400 24.2021
100.1500 11.0587
100.1600 15.1235
100.1700 16.4673
100.1800 21.4977
100.1900 12.5380
100.2000 17.3638
100.2100 17.0487
100.2200 19.3574
100.2300 6.7190
100.2400 15.4978
100.2500 12.0205
100.2600 15.8436
100.2700 8.7225
100.2800 14.2665
100.2900 16.9676
100.3000 17.5087
100.3100 10.8481
100.3200 10.8079
100.3300 8.2454
100.3400 13.4038
100.3500 13.8964
100.3600 15.9824
100.3700 17.7973
100.3800 16.8104
100.3900 19.6424
100.4000 13.3968
100.4100 17.9504
100.4200 16.9505
100.4300 24.0891
100.4400 9.5788
100.4500 16.4547
100.4600 14.8915
100.4700 15.7830
100.4800 15.8580
100.4900 11.9082
100.5000 11.7191
100.5100 14.7255
100.5200 8.0431
100.5300 9.0706
100.5400 11.9966
100.5500 11.3211
100.5600 13.2063
100.5700 21.1007
100.5800 10.3052
100.5900 11.3415
100.6000 18.9299
100.6100 9.5473
100.6200 17.1024
100.6300 9.5958
100.6400 11.7460
100.6500 10.6288
100.6600 17.5604
100.6700 12.4225
100.6800 15.2155
100.6900 15.1966
100.7000 13.9197
100.7100 14.3412
100.7200 13.6200
100.7300 19.7335
100.7400 12.6297
100.7500 18.0463
100.7600 20.1530
100.7700 15.8831
100.7800 13.7691
100.7900 13.8223
100.8000 9.3008
100.8100 11.8794
100.8200 7.5503
100.8300 13.5293
100.8400 13.3208
100.8500 12.3356
100.8600 12.7166
100.8700 15.7970
100.8800 16.6703
100.8900 15.0234
100.9000 11.1922
100.9100 12.9554
100.9200 18.7323
100.9300 16.7172
100.9400 11.6124
100.9500 8.4196
100.9600 19.1827
100.9700 17.6471
100.9800 10.2411
100.9900 13.7373
101.0000 9.1323
101.0100 9.8318
101.0200 13.7729
101.0300 9.6439
101.0400 10.7539
101.0500 15.7698
101.0600 17.1297
101.0700 16.0076
101.0800 7.3448
101.0900 9.3452
101.1000 15.2488
101.1100 15.2893
101.1200 6.6364
101.1300 12.2669
101.1400 11.5396
101.1500 13.6583
101.1600 17.5937
101.1700 16.9586
101.1800 16.5193
101.1900 21.5767
101.2000 13.4581
101.2100 15.8007
101.2200 11.7535
101.2300 13.6326
101.2400 14.9479
101.2500 17.2491
101.2600 20.3131
101.2700 17.7125
101.2800 17.6253
101.2900 10.8945
101.3000 15.7381
101.3100 12.4819
101.3200 15.8852
101.3300 11.3770
101.3400 10.1808
101.3500 14.4560
101.3600 13.0171
101.3700 15.3862
101.3800 20.0134
101.3900 11.8268
101.4000 10.6027
101.4100 19.4916
101.4200 14.7045
101.4300 11.9194
101.4400 9.2253
101.4500 12.6056
101.4600 10.0718
101.4700 10.6373
101.4800 12.0738
101.4900 16.2364
101.5000 16.2623
101.5100 13.3307
101.5200 15.8946
101.5300 12.8816
101.5400 15.6594
101.5500 15.5238
101.5600 16.8443
101.5700 20.3575
101.5800 13.4818
101.5900 13.4491
101.6000 14.9449
101.6100 14.3224
101.6200 15.5063
101.6300 10.9501
101.6400 10.1649
101.6500 12.2542
101.6600 8.5642
101.6700 10.8930
101.6800 16.1487
101.6900 13.0219
101.7000 19.0642
101.7100 17.1323
101.7200 21.3974
101.7300 15.4101
101.7400 9.7636
101.7500 20.6887
101.7600 18.8325
101.7700 16.5046
101.7800 13.6406
101.7900 11.7677
101.8000 12.3637
101.8100 10.8556
101.8200 14.7389
101.8300 13.9966
101.8400 12.8488
101.8500 14.9000
101.8600 17.0453
101.8700 12.9390
101.8800 15.2057
101.8900 21.4493
101.9000 13.8798
101.9100 12.4271
101.9200 15.6069
101.9300 6.4388
101.9400 10.3225
101.9500 10.3288
101.9600 15.5000
101.9700 9.7306
101.9800 19.0054
101.9900 10.8533
102.0000 20.5199
102.0100 13.0411
102.0200 16.6973
102.0300 12.3900
102.0400 12.2194
102.0500 18.9024
102.0600 15.4169
102.0700 14.9342
102.0800 12.9514
102.0900 15.3755
102.1000 13.8707
102.1100 11.4751
102.1200 16.2747
102.1300 15.5552
102.1400 8.6966
102.1500 12.1107
102.1600 12.1879
102.1700 15.4780
102.1800 18.9611
102.1900 15.0830
102.2000 11.1585
102.2100 15.5760
102.2200 19.8375
102.2300 14.1870
102.2400 12.2875
102.2500 11.9233
102.2600 12.7005
102.2700 10.3046
102.2800 8.7069
102.2900 7.8865
102.3000 11.6996
102.3100 17.9496
102.3200 15.6363
102.3300 20.5411
102.3400 14.8135
102.3500 11.3018
102.3600 21.6671
102.3700 16.4611
102.3800 22.7394
102.3900 11.7803
102.4000 19.2749
102.4100 16.1692
102.4200 15.7132
102.4300 12.1560
102.4400 19.4386
102.4500 8.8518
102.4600 21.7002
102.4700 11.6578
102.4800 13.4299
102.4900 10.5663
102.5000 13.8760
102.5100 12.7723
102.5200 8.7475
102.5300 11.7208
102.5400 16.2886
102.5500 15.6424
102.5600 21.7435
102.5700 18.6849
102.5800 13.0170
102.5900 11.7799
102.6000 11.5025
102.6100 10.2017
102.6200 12.8593
102.6300 17.8153
102.6400 10.1324
102.6500 17.7134
102.6600 14.6377
102.6700 15.6518
102.6800 14.8846
102.6900 15.2253
102.7000 9.7099
102.7100 14.3984
102.7200 14.8831
102.7300 16.2731
102.7400 20.0875
102.7500 16.1503
102.7600 10.2799
102.7700 13.8668
102.7800 19.8134
102.7900 17.3971
102.8000 10.0653
102.8100 18.6183
102.8200 16.5911
102.8300 11.3101
102.8400 10.7251
102.8500 11.7096
102.8600 9.6676
102.8700 14.2041
102.8800 19.2665
102.8900 8.7984
102.9000 14.8129
102.9100 11.9370
102.9200 12.2786
102.9300 12.8673
102.9400 14.6018
102.9500 16.9218
102.9600 13.0610
102.9700 10.6450
102.9800 11.1754
102.9900 6.8278
103.0000 17.9800
103.0100 10.0164
103.0200 15.5516
103.0300 12.6940
103.0400 12.0823
103.0500 17.3241
103.0600 9.2967
103.0700 10.7896
103.0800 10.9523
103.0900 10.7710
103.1000 15.1379
103.1100 19.3472
103.1200 17.6159
103.1300 11.4713
103.1400 14.9873
103.1500 10.9380
103.1600 17.4882
103.1700 13.6279
103.1800 19.2554
103.1900 4.9721
103.2000 18.9345
103.2100 15.1356
103.2200 10.5902
103.2300 10.2068
103.2400 9.7194
103.2500 9.7547
103.2600 3.8918
103.2700 11.4770
103.2800 11.8193
103.2900 6.9862
103.3000 7.1828
103.3100 14.1737
103.3200 15.4829
103.3300 15.9013
103.3400 13.7283
103.3500 10.5067
103.3600 10.6787
103.3700 12.3771
103.3800 16.4194
103.3900 10.4802
103.4000 10.1430
103.4100 6.5460
103.4200 13.3073
103.4300 10.8975
103.4400 17.5339
103.4500 16.5722
103.4600 8.2539
103.4700 10.2815
103.4800 11.4293
103.4900 14.0352
103.5000 17.2957
103.5100 16.7853
103.5200 15.8539
103.5300 10.5070
103.5400 14.7830
103.5500 14.9938
103.5600 18.9038
103.5700 11.8874
103.5800 8.5791
103.5900 10.3971
103.6000 14.5637
103.6100 15.9609
103.6200 12.9272
103.6300 14.5062
103.6400 12.4114
103.6500 15.3333
103.6600 15.2944
103.6700 16.2691
103.6800 12.7140
103.6900 16.8976
103.7000 24.3482
103.7100 16.0989
103.7200 19.5688
103.7300 11.5460
103.7400 13.1651
103.7500 16.7218
103.7600 12.8988
103.7700 9.0076
103.7800 13.1724
103.7900 17.2583
103.8000 15.1172
103.8100 17.8009
103.8200 14.7761
103.8300 15.4980
103.8400 11.1538
103.8500 13.8578
103.8600 15.6034
103.8700 14.0192
103.8800 14.5533
103.8900 14.0115
103.9000 12.3844
103.9100 15.1085
103.9200 11.1255
103.9300 16.8261
103.9400 13.1878
103.9500 16.6332
103.9600 14.6087
103.9700 16.0706
103.9800 16.6052
103.9900 9.3939
104.0000 12.8519
104.0100 10.3142
104.0200 16.1703
104.0300 17.0138
104.0400 20.6406
104.0500 12.1168
104.0600 12.1550
104.0700 14.1384
104.0800 11.3600
104.0900 14.6040
104.1000 18.3530
104.1100 14.7031
104.1200 25.5589
104.1300 22.0789
104.1400 15.8836
104.1500 12.7470
104.1600 14.0181
104.1700 11.8934
104.1800 14.3701
104.1900 14.2811
104.2000 14.5115
104.2100 10.2702
104.2200 17.1652
104.2300 16.9643
104.2400 15.9772
104.2500 19.6369
104.2600 14.8069
104.2700 13.5075
104.2800 10.2244
104.2900 19.0749
104.3000 10.4273
104.3100 24.0598
104.3200 13.0333
104.3300 23.2287
104.3400 16.6442
104.3500 13.5990
104.3600 9.4042
104.3700 6.2214
104.3800 16.6938
104.3900 11.7994
104.4000 15.6125
104.4100 21.2072
104.4200 20.3857
104.4300 22.0694
104.4400 20.7876
104.4500 7.6321
104.4600 13.3608
104.4700 16.3470
104.4800 12.1590
104.4900 13.7866
104.5000 16.2234
104.5100 10.3152
104.5200 8.4595
104.5300 17.6286
104.5400 18.4553
104.5500 14.8990
104.5600 24.0638
104.5700 13.0590
104.5800 21.0000
104.5900 16.4319
104.6000 15.1929
104.6100 10.7072
104.6200 11.1913
104.6300 14.3579
104.6400 11.5750
104.6500 14.2063
104.6600 12.8401
104.6700 10.3651
104.6800 13.6013
104.6900 13.1312
104.7000 14.2760
104.7100 9.5169
104.7200 15.4427
104.7300 14.5784
104.7400 13.0823
104.7500 12.2075
104.7600 15.0167
104.7700 17.9788
104.7800 12.6190
104.7900 6.3928
104.8000 17.1418
104.8100 11.1245
104.8200 14.1966
104.8300 12.6216
104.8400 14.1851
104.8500 14.6052
104.8600 11.6975
104.8700 11.0440
104.8800 15.0141
104.8900 13.5727
104.9000 20.7889
104.9100 13.5591
104.9200 20.0363
104.9300 11.3712
104.9400 16.9929
104.9500 16.7716
104.9600 11.9836
104.9700 11.8030
104.9800 15.6683
104.9900 13.0879
105.0000 16.5821
105.0100 15.2260
105.0200 17.4479
105.0300 15.2684
105.0400 12.6674
105.0500 14.1986
105.0600 15.5376
105.0700 14.7911
105.0800 14.6865
105.0900 8.5818
105.1000 11.9847
105.1100 12.4666
105.1200 17.2755
105.1300 19.0697
105.1400 18.8076
105.1500 17.7703
105.1600 9.5929
105.1700 12.8342
105.1800 12.3316
105.1900 18.3822
105.2000 17.5307
105.2100 6.7097
105.2200 9.9852
105.2300 12.9109
105.2400 13.0465
105.2500 11.3229
105.2600 11.5621
105.2700 23.1756
105.2800 18.6321
105.2900 11.1681
105.3000 11.1837
105.3100 16.9196
105.3200 11.3844
105.3300 7.6829
105.3400 9.9523
105.3500 8.6122
105.3600 13.4430
105.3700 12.6994
105.3800 8.4015
105.3900 12.9818
105.4000 8.9699
105.4100 12.6454
105.4200 10.9794
105.4300 12.4818
105.4400 10.2735
105.4500 10.3412
105.4600 20.4296
105.4700 12.0971
105.4800 14.7554
105.4900 13.4767
105.5000 11.9442
105.5100 11.3290
105.5200 9.9917
105.5300 5.6684
105.5400 11.1947
105.5500 16.8385
105.5600 14.0788
105.5700 7.8474
105.5800 8.3730
105.5900 10.8022
105.6000 13.6687
105.6100 19.3219
105.6200 15.1277
105.6300 21.1307
105.6400 11.4222
105.6500 10.9117
105.6600 11.3372
105.6700 13.5078
105.6800 14.9989
105.6900 16.5998
105.7000 13.5174
105.7100 11.3338
105.7200 9.0263
105.7300 12.1174
105.7400 12.6837
105.7500 10.8049
105.7600 15.9600
105.7700 12.3024
105.7800 11.7929
105.7900 10.7727
105.8000 10.0603
105.8100 14.0141
105.8200 11.5529
105.8300 10.6564
105.8400 17.6986
105.8500 17.2614
105.8600 12.8799
105.8700 13.8862
105.8800 11.3059
105.8900 11.4088
105.9000 21.2616
105.9100 18.9665
105.9200 17.5219
105.9300 22.4666
105.9400 15.9372
105.9500 17.9188
105.9600 19.1667
105.9700 13.7354
105.9800 15.2182
105.9900 14.2221
106.0000 15.5652
106.0100 14.3773
106.0200 7.7403
106.0300 10.4711
106.0400 17.4044
106.0500 9.2632
106.0600 10.6110
106.0700 13.3999
106.0800 13.1600
106.0900 15.6731
106.1000 15.0783
106.1100 9.9173
106.1200 14.4383
106.1300 11.2429
106.1400 17.4544
106.1500 12.3054
106.1600 11.6238
106.1700 13.8330
106.1800 16.3618
106.1900 13.7024
106.2000 9.0473
106.2100 12.1435
106.2200 17.5329
106.2300 11.7932
106.2400 15.6424
106.2500 16.1856
106.2600 22.6223
106.2700 10.8407
106.2800 12.7361
106.2900 8.1269
106.3000 21.3933
106.3100 9.6214
106.3200 14.4808
106.3300 12.9386
106.3400 16.6780
106.3500 8.2540
106.3600 19.3091
106.3700 10.6364
106.3800 14.6462
106.3900 13.1227
106.4000 16.3949
106.4100 14.3716
106.4200 13.1817
106.4300 13.6154
106.4400 15.4747
106.4500 14.8844
106.4600 13.9456
106.4700 13.6722
106.4800 21.1695
106.4900 8.4578
106.5000 15.0888
106.5100 17.8056
106.5200 12.3235
106.5300 14.0321
106.5400 8.6091
106.5500 13.1759
106.5600 13.4152
106.5700 9.9609
106.5800 12.9855
106.5900 8.2330
106.6000 12.2514
106.6100 15.3875
106.6200 13.5985
106.6300 15.2403
106.6400 20.7251
106.6500 12.3495
106.6600 7.8861
106.6700 11.7437
106.6800 10.7320
106.6900 11.5900
106.7000 11.3412
106.7100 13.0796
106.7200 20.4179
106.7300 10.9631
106.7400 10.1280
106.7500 12.9942
106.7600 12.3872
106.7700 16.5248
106.7800 17.3254
106.7900 14.9643
106.8000 8.9471
106.8100 9.5437
106.8200 18.9208
106.8300 11.5707
106.8400 11.9885
106.8500 9.2729
106.8600 13.1178
106.8700 12.1185
106.8800 14.4181
106.8900 11.5483
106.9000 15.4262
106.9100 14.0342
106.9200 16.2578
106.9300 14.1663
106.9400 13.1446
106.9500 9.0276
106.9600 12.5514
106.9700 10.0315
106.9800 10.4086
106.9900 11.3345
107.0000 10.7432
107.0100 15.5289
107.0200 19.3870
107.0300 13.7162
107.0400 13.1932
107.0500 16.7532
107.0600 16.9208
107.0700 9.7670
107.0800 15.0607
107.0900 14.1506
107.1000 15.2866
107.1100 20.4236
107.1200 13.4260
107.1300 12.4645
107.1400 13.5838
107.1500 11.6418
107.1600 15.2937
107.1700 16.3319
107.1800 13.9887
107.1900 17.7197
107.2000 9.6991
107.2100 13.4071
107.2200 9.7925
107.2300 14.9134
107.2400 8.9540
107.2500 10.2928
107.2600 15.5993
107.2700 14.9481
107.2800 6.5754
107.2900 11.5316
107.3000 10.4462
107.3100 10.4026
107.3200 13.2035
107.3300 16.9598
107.3400 13.3119
107.3500 11.9879
107.3600 4.9225
107.3700 15.9860
107.3800 17.1487
107.3900 16.6773
107.4000 12.7832
107.4100 15.6513
107.4200 18.6305
107.4300 9.7000
107.4400 12.2895
107.4500 16.8253
107.4600 12.7205
107.4700 10.3401
107.4800 7.8625
107.4900 11.5151
107.5000 10.4298
107.5100 13.1373
107.5200 13.6815
107.5300 12.2509
107.5400 12.0097
107.5500 14.2083
107.5600 9.0444
107.5700 17.6786
107.5800 11.5851
107.5900 14.9898
107.6000 18.3950
107.6100 19.1303
107.6200 9.5167
107.6300 8.6852
107.6400 14.3230
107.6500 12.3648
107.6600 9.4013
107.6700 13.8657
107.6800 13.5464
107.6900 7.9103
107.7000 12.4027
107.7100 13.1422
107.7200 17.2144
107.7300 16.3407
107.7400 28.9228
107.7500 15.6983
107.7600 14.9245
107.7700 20.2570
107.7800 13.6275
107.7900 13.9539
107.8000 12.6792
107.8100 12.7120
107.8200 17.3437
107.8300 14.9207
107.8400 20.9492
107.8500 16.9797
107.8600 14.7821
107.8700 18.7743
107.8800 11.9570
107.8900 11.0637
107.9000 19.7561
107.9100 17.0041
107.9200 10.3700
107.9300 16.4555
107.9400 23.7632
107.9500 20.0915
107.9600 12.9373
107.9700 16.5391
107.9800 17.3987
107.9900 9.4873
108.0000 22.3601
108.0100 12.2787
108.0200 11.7553
108.0300 15.8051
108.0400 14.4546
108.0500 9.7978
108.0600 17.2267
108.0700 13.4566
108.0800 14.1169
108.0900 8.2476
108.1000 11.7107
108.1100 13.7009
108.1200 8.5201
108.1300 18.2971
108.1400 11.9304
108.1500 14.8534
108.1600 9.4251
108.1700 9.6965
108.1800 17.0129
108.1900 11.1103
108.2000 13.4403
108.2100 14.8348
108.2200 11.9431
108.2300 9.1351
108.2400 17.7351
108.2500 15.7470
108.2600 6.8392
108.2700 10.6533
108.2800 10.3557
108.2900 12.5674
108.3000 16.9429
108.3100 11.6663
108.3200 14.2608
108.3300 18.3364
108.3400 11.7788
108.3500 8.9703
108.3600 6.9573
108.3700 9.2391
108.3800 18.3730
108.3900 5.2062
108.4000 20.0019
108.4100 11.7183
108.4200 14.0075
108.4300 8.1428
108.4400 11.2597
108.4500 11.9173
108.4600 8.1528
108.4700 17.9870
108.4800 18.1609
108.4900 11.1341
108.5000 7.7806
108.5100 14.0279
108.5200 11.0004
108.5300 12.6220
108.5400 20.1332
108.5500 13.0653
108.5600 14.2238
108.5700 16.0885
108.5800 8.7722
108.5900 13.3356
108.6000 11.5579
108.6100 10.3349
108.6200 12.4173
108.6300 14.1667
108.6400 8.8833
108.6500 14.5063
108.6600 12.4067
108.6700 15.3245
108.6800 11.9686
108.6900 12.9672
108.7000 13.4662
108.7100 14.1115
108.7200 14.9184
108.7300 8.7608
108.7400 14.4159
108.7500 14.3427
108.7600 12.5282
108.7700 11.5820
108.7800 10.8776
108.7900 12.8056
108.8000 17.3719
108.8100 14.8980
108.8200 13.0367
108.8300 15.8580
108.8400 16.3293
108.8500 10.4194
108.8600 15.3010
108.8700 13.3757
108.8800 14.1123
108.8900 8.3338
108.9000 13.0755
108.9100 11.4160
108.9200 16.5807
108.9300 10.6708
108.9400 17.2027
108.9500 13.1319
108.9600 12.8917
108.9700 12.4156
108.9800 8.4262
108.9900 12.4035
109.0000 19.7738
109.0100 11.6521
109.0200 18.3207
109.0300 11.7848
109.0400 6.9655
109.0500 15.3985
109.0600 13.4370
109.0700 12.7570
109.0800 17.1622
109.0900 11.9346
109.1000 17.0629
109.1100 14.7224
109.1200 17.9415
109.1300 14.4765
109.1400 18.5856
109.1500 8.6378
109.1600 11.1231
109.1700 8.7217
109.1800 14.1676
109.1900 15.7832
109.2000 15.1588
109.2100 16.3511
109.2200 12.0606
109.2300 10.6818
109.2400 10.7598
109.2500 12.3904
109.2600 10.7522
109.2700 12.8716
109.2800 13.5826
109.2900 11.8628
109.3000 13.7890
109.3100 19.7612
109.3200 9.3741
109.3300 10.1126
109.3400 11.3792
109.3500 13.8803
109.3600 15.7829
109.3700 12.9823
109.3800 13.2168
109.3900 18.2163
109.4000 17.1222
109.4100 19.9408
109.4200 12.8528
109.4300 15.2357
109.4400 13.7788
109.4500 16.5719
109.4600 7.1580
109.4700 12.0321
109.4800 10.3885
109.4900 13.2921
109.5000 18.7857
109.5100 20.9498
109.5200 9.5643
109.5300 20.9184
109.5400 9.1621
109.5500 13.7518
109.5600 19.6151
109.5700 22.3413
109.5800 22.5836
109.5900 15.7714
109.6000 14.4773
109.6100 14.4992
109.6200 15.3661
109.6300 19.0406
109.6400 21.8760
109.6500 11.9757
109.6600 11.6892
109.6700 10.8544
109.6800 12.9974
109.6900 7.5652
109.7000 21.5402
109.7100 13.7142
109.7200 14.6772
109.7300 14.1234
109.7400 9.3967
109.7500 16.1922
109.7600 23.8399
109.7700 8.6748
109.7800 16.8658
109.7900 15.3425
109.8000 12.1200
109.8100 17.2222
109.8200 22.4314
109.8300 14.1876
109.8400 14.8327
109.8500 16.0008
109.8600 11.8225
109.8700 17.6324
109.8800 15.4433
109.8900 6.1471
109.9000 7.9733
109.9100 12.2727
109.9200 15.8252
109.9300 12.9680
109.9400 12.3871
109.9500 18.9167
109.9600 13.9248
109.9700 13.2076
109.9800 11.4645
109.9900 17.1777
110.0000 13.0349
110.0100 10.6029
110.0200 14.6832
110.0300 17.8824
110.0400 17.5654
110.0500 9.9874
110.0600 17.3991
110.0700 11.6370
110.0800 20.6362
110.0900 14.9357
110.1000 20.7139
110.1100 16.1805
110.1200 13.2988
110.1300 11.4237
110.1400 13.1535
110.1500 11.9389
110.1600 14.0485
110.1700 16.3484
110.1800 14.4134
110.1900 11.1513
110.2000 23.3768
110.2100 14.8769
110.2200 15.6204
110.2300 12.9467
110.2400 17.6050
110.2500 19.3906
110.2600 11.8205
110.2700 13.1114
110.2800 17.3990
110.2900 13.7461
110.3000 12.2995
110.3100 10.1473
110.3200 14.5053
110.3300 16.8028
110.3400 17.7691
110.3500 14.1441
110.3600 12.3912
110.3700 13.6101
110.3800 12.9315
110.3900 6.6849
110.4000 11.4143
110.4100 12.5976
110.4200 8.2632
110.4300 10.7862
110.4400 8.2396
110.4500 5.7139
110.4600 13.2705
110.4700 10.4536
110.4800 8.8013
110.4900 13.1488
110.5000 16.5583
110.5100 15.3086
110.5200 20.2559
110.5300 9.7189
110.5400 12.6431
110.5500 20.4602
110.5600 11.6719
110.5700 19.5227
110.5800 14.7109
110.5900 16.1405
110.6000 16.7162
110.6100 5.6592
110.6200 17.6836
110.6300 9.0248
110.6400 13.8883
110.6500 16.2769
110.6600 13.6058
110.6700 13.5368
110.6800 9.5680
110.6900 12.3482
110.7000 16.1155
110.7100 14.6639
110.7200 21.6689
110.7300 11.9638
110.7400 8.3513
110.7500 7.9151
110.7600 9.0843
110.7700 9.9100
110.7800 11.8695
110.7900 16.4580
110.8000 7.0378
110.8100 10.2916
110.8200 13.3731
110.8300 17.2222
110.8400 13.5505
110.8500 10.9399
110.8600 8.8431
110.8700 17.0839
110.8800 13.2811
110.8900 18.4608
110.9000 16.8785
110.9100 14.1947
110.9200 15.2550
110.9300 14.6274
110.9400 13.7207
110.9500 11.0317
110.9600 15.1326
110.9700 10.4914
110.9800 10.4551
110.9900 15.0605
111.0000 19.5733
111.0100 16.1863
111.0200 11.1275
111.0300 9.4530
111.0400 12.3181
111.0500 18.0954
111.0600 12.4005
111.0700 7.7742
111.0800 9.4763
111.0900 11.0250
111.1000 16.6608
111.1100 16.5129
111.1200 12.8506
111.1300 15.9414
111.1400 12.6875
111.1500 14.6087
111.1600 13.0898
111.1700 12.3491
111.1800 17.0499
111.1900 10.1819
111.2000 17.5666
111.2100 19.0620
111.2200 17.1091
111.2300 18.8741
111.2400 15.8488
111.2500 8.7591
111.2600 9.7293
111.2700 12.4326
111.2800 15.4207
111.2900 13.0345
111.3000 11.1219
111.3100 16.2719
111.3200 13.4413
111.3300 15.1473
111.3400 9.7573
111.3500 9.6973
111.3600 11.2481
111.3700 19.6954
111.3800 10.2551
111.3900 15.7097
111.4000 19.5872
111.4100 11.0880
111.4200 14.8123
111.4300 13.0894
111.4400 19.0594
111.4500 9.2183
111.4600 9.6465
111.4700 13.8783
111.4800 15.0618
111.4900 11.2308
111.5000 13.9075
111.5100 9.7437
111.5200 23.9615
111.5300 20.6679
111.5400 16.6572
111.5500 13.4035
111.5600 12.8818
111.5700 21.2496
111.5800 18.6686
111.5900 10.6168
111.6000 19.6045
111.6100 11.0982
111.6200 14.9224
111.6300 19.1942
111.6400 13.4634
111.6500 13.3036
111.6600 12.4502
111.6700 11.1036
111.6800 13.4016
111.6900 17.4117
111.7000 14.8489
111.7100 16.4049
111.7200 16.2468
111.7300 20.6762
111.7400 12.0762
111.7500 22.5761
111.7600 19.7478
111.7700 13.4430
111.7800 6.8505
111.7900 18.9462
111.8000 15.9074
111.8100 15.6930
111.8200 11.8036
111.8300 17.1979
111.8400 10.8515
111.8500 12.4241
111.8600 12.9283
111.8700 11.8921
111.8800 12.9085
111.8900 17.8996
111.9000 11.8566
111.9100 8.1230
111.9200 12.0177
111.9300 11.9890
111.9400 10.5202
111.9500 10.8140
111.9600 19.2051
111.9700 18.3783
111.9800 10.7626
111.9900 12.2367
112.0000 19.9011
112.0100 7.9980
112.0200 14.3272
112.0300 19.9931
112.0400 12.5479
112.0500 9.1116
112.0600 6.7738
112.0700 13.5927
112.0800 3.8983
112.0900 7.2585
112.1000 12.8154
112.1100 13.8438
112.1200 13.5773
112.1300 11.9322
112.1400 11.8298
112.1500 18.7324
112.1600 18.8293
112.1700 11.7879
112.1800 11.7046
112.1900 13.8778
112.2000 19.5283
112.2100 13.4718
112.2200 19.6093
112.2300 17.8832
112.2400 17.2781
112.2500 10.4898
112.2600 12.6778
112.2700 13.9817
112.2800 19.7411
112.2900 14.8965
112.3000 15.6038
112.3100 16.6736
112.3200 13.1143
112.3300 11.9025
112.3400 13.6654
112.3500 13.8595
112.3600 13.2523
112.3700 16.8660
112.3800 18.0135
112.3900 21.0597
112.4000 27.0229
112.4100 16.8698
112.4200 25.7199
112.4300 12.0618
112.4400 15.4611
112.4500 13.7685
112.4600 24.8246
112.4700 13.1661
112.4800 23.0338
112.4900 13.8237
112.5000 22.8680
112.5100 13.9712
112.5200 26.3833
112.5300 19.5392
112.5400 20.5416
112.5500 18.5485
112.5600 13.5429
112.5700 5.5825
112.5800 7.5600
112.5900 12.1960
112.6000 14.2876
112.6100 18.5881
112.6200 15.8231
112.6300 10.9553
112.6400 13.1471
112.6500 11.5935
112.6600 16.6772
112.6700 15.4181
112.6800 16.6133
112.6900 7.7263
112.7000 16.2107
112.7100 16.3953
112.7200 15.7713
112.7300 21.6411
112.7400 16.5620
112.7500 10.1785
112.7600 13.9935
112.7700 17.3679
112.7800 22.2382
112.7900 17.0394
112.8000 13.8413
112.8100 20.4402
112.8200 10.7400
112.8300 15.2662
112.8400 13.6076
112.8500 14.7576
112.8600 9.7084
112.8700 14.5275
112.8800 10.3445
112.8900 21.0280
112.9000 20.3324
112.9100 9.2812
112.9200 14.1418
112.9300 9.5296
112.9400 14.5801
112.9500 19.6716
112.9600 10.1326
112.9700 18.5960
112.9800 18.4225
112.9900 8.5611
113.0000 16.3839
113.0100 12.1122
113.0200 12.0338
113.0300 11.7830
113.0400 7.4382
113.0500 11.6974
113.0600 10.4488
113.0700 9.7097
113.0800 10.9605
113.0900 12.9903
113.1000 16.5595
113.1100 9.8523
113.1200 15.3514
113.1300 20.3253
113.1400 13.8864
113.1500 11.7090
113.1600 8.6825
113.1700 11.1485
113.1800 8.3887
113.1900 12.0279
113.2000 12.2180
113.2100 14.1600
113.2200 9.9072
113.2300 18.7047
113.2400 16.6844
113.2500 8.6730
113.2600 14.6193
113.2700 10.0350
113.2800 10.9632
113.2900 9.8989
113.3000 13.6937
113.3100 11.5047
113.3200 13.4429
113.3300 11.8844
113.3400 8.7358
113.3500 14.7489
113.3600 15.9165
113.3700 12.5050
113.3800 9.2285
113.3900 15.3545
113.4000 20.3750
113.4100 17.6604
113.4200 16.9484
113.4300 14.1066
113.4400 23.0974
113.4500 19.0481
113.4600 14.9575
113.4700 14.6662
113.4800 11.2266
113.4900 14.6189
113.5000 15.4395
113.5100 11.8001
113.5200 15.9000
113.5300 13.9350
113.5400 16.6470
113.5500 20.2088
113.5600 22.6334
113.5700 8.6824
113.5800 16.1291
113.5900 13.0874
113.6000 12.9198
113.6100 13.8175
113.6200 16.3405
113.6300 15.5365
113.6400 19.1254
113.6500 16.2666
113.6600 14.9087
113.6700 16.1279
113.6800 8.1015
113.6900 9.0397
113.7000 16.2136
113.7100 14.9746
113.7200 15.3430
113.7300 16.8189
113.7400 14.6252
113.7500 17.8198
113.7600 15.5971
113.7700 15.7971
113.7800 10.4680
113.7900 15.7596
113.8000 16.3435
113.8100 8.0065
113.8200 12.5336
113.8300 13.3975
113.8400 17.2557
113.8500 12.9272
113.8600 15.9478
113.8700 17.4569
113.8800 10.9831
113.8900 6.8006
113.9000 23.8202
113.9100 4.3645
113.9200 14.5651
113.9300 11.9514
113.9400 13.0411
113.9500 14.6504
113.9600 17.5008
113.9700 11.9999
113.9800 19.0684
113.9900 10.8559
114.0000 14.5300
114.0100 8.9647
114.0200 14.1792
114.0300 17.6590
114.0400 17.8303
114.0500 15.5268
114.0600 12.1631
114.0700 14.4479
114.0800 9.5541
114.0900 18.1533
114.1000 18.2033
114.1100 12.7611
114.1200 11.3258
114.1300 11.0398
114.1400 20.5745
114.1500 20.4774
114.1600 13.7809
114.1700 26.0108
114.1800 13.4155
114.1900 26.1773
114.2000 13.7564
114.2100 17.7065
114.2200 10.1085
114.2300 21.3058
114.2400 21.4631
114.2500 15.0254
114.2600 13.5240
114.2700 14.2131
114.2800 20.6564
114.2900 10.6627
114.3000 14.5063
114.3100 11.3587
114.3200 22.4878
114.3300 17.0000
114.3400 22.4619
114.3500 9.3501
114.3600 18.9331
114.3700 8.9400
114.3800 7.5675
114.3900 7.8921
114.4000 10.4336
114.4100 13.3645
114.4200 14.5360
114.4300 8.3813
114.4400 7.2915
114.4500 15.6287
114.4600 14.7629
114.4700 6.5819
114.4800 13.4792
114.4900 15.1694
114.5000 11.2968
114.5100 11.3784
114.5200 15.3153
114.5300 9.6888
114.5400 23.0854
114.5500 13.2622
114.5600 15.2022
114.5700 15.4886
114.5800 12.7704
114.5900 12.6087
114.6000 12.5280
114.6100 16.0974
114.6200 13.7767
114.6300 17.3934
114.6400 17.6190
114.6500 21.9006
114.6600 12.7123
114.6700 10.5053
114.6800 11.5985
114.6900 11.9703
114.7000 11.8567
114.7100 14.6819
114.7200 11.0677
114.7300 16.2687
114.7400 19.3747
114.7500 12.8947
114.7600 11.0276
114.7700 14.5420
114.7800 15.6421
114.7900 15.4473
114.8000 10.6175
114.8100 20.8784
114.8200 14.0867
114.8300 23.6795
114.8400 14.8543
114.8500 14.2704
114.8600 21.5987
114.8700 14.2618
114.8800 16.1105
114.8900 13.8075
114.9000 11.0878
114.9100 9.5262
114.9200 13.7198
114.9300 13.5056
114.9400 16.8393
114.9500 15.3361
114.9600 17.4479
114.9700 6.8833
114.9800 12.6733
114.9900 9.8136
115.0000 7.0249
115.0100 11.0592
115.0200 18.0638
115.0300 17.2495
115.0400 18.5001
115.0500 14.9493
115.0600 20.0343
115.0700 13.8719
115.0800 21.9511
115.0900 15.6553
115.1000 18.1640
115.1100 14.0058
115.1200 16.0275
115.1300 15.1064
115.1400 15.0817
115.1500 8.0448
115.1600 19.7668
115.1700 17.0140
115.1800 21.4522
115.1900 13.6836
115.2000 9.1955
115.2100 16.4006
115.2200 15.1399
115.2300 18.1488
115.2400 18.3128
115.2500 12.7981
115.2600 8.6405
115.2700 18.4869
115.2800 19.4093
115.2900 16.6613
115.3000 13.7874
115.3100 19.1375
115.3200 22.1650
115.3300 15.7085
115.3400 8.2299
115.3500 18.0623
115.3600 17.4071
115.3700 14.7205
115.3800 12.0435
115.3900 12.3752
115.4000 15.3428
115.4100 20.1704
115.4200 12.6303
115.4300 12.8633
115.4400 14.0494
115.4500 14.7113
115.4600 11.8608
115.4700 12.4771
115.4800 26.9189
115.4900 21.0261
115.5000 21.8812
115.5100 19.6354
115.5200 19.9689
115.5300 19.7434
115.5400 18.9328
115.5500 17.5035
115.5600 18.7308
115.5700 20.1848
115.5800 22.1563
115.5900 16.1743
115.6000 21.2215
115.6100 12.1088
115.6200 21.6572
115.6300 19.1684
115.6400 21.6651
115.6500 19.5713
115.6600 16.9960
115.6700 23.1222
115.6800 26.1865
115.6900 25.0599
115.7000 15.5320
115.7100 24.4227
115.7200 39.5063
115.7300 41.7731
115.7400 21.7062
115.7500 28.4258
115.7600 23.5205
115.7700 25.8821
115.7800 30.2438
115.7900 23.8595
115.8000 34.3972
115.8100 37.3710
115.8200 36.3921
115.8300 37.2753
115.8400 46.3657
115.8500 42.3996
115.8600 38.3003
115.8700 43.6263
115.8800 39.3604
115.8900 36.0933
115.9000 35.4610
115.9100 32.9273
115.9200 53.7074
115.9300 37.2944
115.9400 40.8007
115.9500 38.2547
115.9600 38.7263
115.9700 40.4889
115.9800 49.9549
115.9900 44.6493
116.0000 52.1097
116.0100 56.3937
116.0200 38.3104
116.0300 41.0231
116.0400 36.2522
116.0500 40.2466
116.0600 37.3789
116.0700 31.5859
116.0800 36.5891
116.0900 37.3605
116.1000 40.2029
116.1100 30.3944
116.1200 32.9069
116.1300 29.5397
116.1400 26.0611
116.1500 29.6890
116.1600 32.5778
116.1700 35.7137
116.1800 27.8571
116.1900 28.1216
116.2000 25.2610
116.2100 25.0492
116.2200 35.9773
116.2300 22.2018
116.2400 24.8390
116.2500 27.2148
116.2600 27.1215
116.2700 21.3489
116.2800 20.8444
116.2900 24.0819
116.3000 18.2027
116.3100 15.9872
116.3200 13.1887
116.3300 22.3058
116.3400 10.3865
116.3500 21.2433
116.3600 17.0215
116.3700 16.6607
116.3800 23.5982
116.3900 16.1366
116.4000 24.0927
116.4100 19.7601
116.4200 17.4542
116.4300 21.0419
116.4400 13.6782
116.4500 18.8019
116.4600 19.6307
116.4700 15.9051
116.4800 15.0651
116.4900 14.8623
116.5000 17.1123
116.5100 18.3837
116.5200 10.3113
116.5300 13.0834
116.5400 11.7622
116.5500 22.9051
116.5600 18.5410
116.5700 19.0625
116.5800 19.2528
116.5900 19.4047
116.6000 14.0079
116.6100 23.2173
116.6200 16.8908
116.6300 21.1264
116.6400 15.1168
116.6500 27.7055
116.6600 8.8627
116.6700 17.9487
116.6800 19.4727
116.6900 20.5478
116.7000 19.7775
116.7100 18.5510
116.7200 13.5203
116.7300 20.7583
116.7400 21.2403
116.7500 10.5602
116.7600 15.3148
116.7700 13.0160
116.7800 14.2284
116.7900 10.9350
116.8000 13.9130
116.8100 12.6108
116.8200 20.0924
116.8300 12.7932
116.8400 22.8401
116.8500 11.5814
116.8600 10.5978
116.8700 17.3224
116.8800 21.2241
116.8900 17.0793
116.9000 11.4622
116.9100 14.7081
116.9200 18.5895
116.9300 17.3089
116.9400 11.3111
116.9500 15.7349
116.9600 9.2279
116.9700 21.6315
116.9800 12.7942
116.9900 11.1668
117.0000 13.6990
117.0100 15.7848
117.0200 18.7158
117.0300 13.6604
117.0400 13.2954
117.0500 11.4774
117.0600 8.6790
117.0700 20.2172
117.0800 14.8860
117.0900 14.0169
117.1000 17.7489
117.1100 12.3841
117.1200 15.2592
117.1300 17.2739
117.1400 21.9628
117.1500 17.3787
117.1600 13.1920
117.1700 6.4297
117.1800 14.8178
117.1900 17.6589
117.2000 16.7532
117.2100 17.8971
117.2200 10.2931
117.2300 15.3509
117.2400 9.2256
117.2500 11.5530
117.2600 13.7062
117.2700 18.0617
117.2800 14.1316
117.2900 16.8335
117.3000 16.4175
117.3100 17.9748
117.3200 10.8350
117.3300 14.1892
117.3400 14.1446
117.3500 11.4850
117.3600 15.4287
117.3700 12.0294
117.3800 11.3691
117.3900 15.7482
117.4000 15.3008
117.4100 20.7022
117.4200 17.8713
117.4300 19.8989
117.4400 20.9935
117.4500 11.0532
117.4600 13.0705
117.4700 9.4253
117.4800 12.7703
117.4900 14.0357
117.5000 9.4475
117.5100 11.4031
117.5200 22.5899
117.5300 14.7572
117.5400 15.7433
117.5500 7.7675
117.5600 10.9624
117.5700 18.8028
117.5800 13.0746
117.5900 9.6955
117.6000 12.3547
117.6100 6.7866
117.6200 18.3577
117.6300 10.8051
117.6400 18.4403
117.6500 14.7333
117.6600 11.5910
117.6700 16.3770
117.6800 16.6603
117.6900 13.6674
117.7000 13.0244
117.7100 11.8441
117.7200 16.3755
117.7300 9.5235
117.7400 12.5551
117.7500 11.0192
117.7600 10.4255
117.7700 11.2683
117.7800 12.0991
117.7900 10.3451
117.8000 14.4370
117.8100 16.0871
117.8200 16.6993
117.8300 10.3844
117.8400 9.4521
117.8500 10.1392
117.8600 14.7414
117.8700 9.6712
117.8800 22.1888
117.8900 10.4993
117.9000 13.9895
117.9100 11.4805
117.9200 15.2080
117.9300 15.6132
117.9400 10.4525
117.9500 12.8169
117.9600 17.7009
117.9700 12.7376
117.9800 11.4115
117.9900 16.0885
118.0000 13.0595
118.0100 13.8294
118.0200 13.4833
118.0300 10.1488
118.0400 11.0157
118.0500 16.3422
118.0600 24.8043
118.0700 12.3115
118.0800 16.8112
118.0900 11.3972
118.1000 16.9218
118.1100 18.9566
118.1200 8.7258
118.1300 10.0531
118.1400 13.5193
118.1500 10.8750
118.1600 13.0168
118.1700 11.3496
118.1800 15.0818
118.1900 15.2451
118.2000 11.2063
118.2100 12.2487
118.2200 12.5240
118.2300 8.1094
118.2400 12.1605
118.2500 19.1687
118.2600 13.2091
118.2700 14.0114
118.2800 10.4617
118.2900 9.9996
118.3000 13.1149
118.3100 13.9073
118.3200 18.2131
118.3300 17.1272
118.3400 21.6238
118.3500 17.0513
118.3600 23.0266
118.3700 16.4082
118.3800 15.9361
118.3900 8.8236
118.4000 20.7883
118.4100 17.5481
118.4200 17.8190
118.4300 16.9852
118.4400 16.4043
118.4500 15.9338
118.4600 19.8732
118.4700 8.2838
118.4800 9.9419
118.4900 12.5734
118.5000 12.4080
118.5100 15.1522
118.5200 12.9760
118.5300 12.0640
118.5400 15.7665
118.5500 8.4126
118.5600 13.0732
118.5700 19.2817
118.5800 17.2902
118.5900 13.2743
118.6000 12.4334
118.6100 11.0561
118.6200 18.4923
118.6300 11.1134
118.6400 14.6721
118.6500 12.7869
118.6600 14.8671
118.6700 14.5865
118.6800 19.8434
118.6900 16.8753
118.7000 14.4168
118.7100 14.8867
118.7200 18.2797
118.7300 14.8658
118.7400 10.2830
118.7500 13.6766
118.7600 16.9693
118.7700 17.8035
118.7800 14.8092
118.7900 8.0198
118.8000 11.6434
118.8100 9.9193
118.8200 11.3226
118.8300 16.5952
118.8400 16.0370
118.8500 19.8274
118.8600 11.5562
118.8700 24.7348
118.8800 12.5526
118.8900 21.8378
118.9000 13.2848
118.9100 24.6896
118.9200 15.7657
118.9300 22.4450
118.9400 10.3771
118.9500 15.7239
118.9600 9.9122
118.9700 17.3027
118.9800 19.0757
118.9900 13.7237
119.0000 14.8700
119.0100 14.3469
119.0200 19.7331
119.0300 11.3912
119.0400 10.4768
119.0500 10.3433
119.0600 10.6277
119.0700 8.3114
119.0800 11.4043
119.0900 17.4049
119.1000 12.0878
119.1100 18.8898
119.1200 22.2916
119.1300 22.5934
119.1400 23.1878
119.1500 18.2353
119.1600 13.6846
119.1700 18.1200
119.1800 13.3712
119.1900 14.6140
119.2000 16.1804
119.2100 11.5622
119.2200 9.8882
119.2300 9.0963
119.2400 8.1916
119.2500 17.0554
119.2600 15.5675
119.2700 13.0724
119.2800 16.8018
119.2900 15.0930
119.3000 16.1149
119.3100 17.1459
119.3200 17.8736
119.3300 13.7273
119.3400 18.2745
119.3500 15.9554
119.3600 13.9497
119.3700 14.2121
119.3800 10.4697
119.3900 11.5832
119.4000 18.8501
119.4100 18.7531
119.4200 16.8657
119.4300 12.2845
119.4400 14.7206
119.4500 11.3043
119.4600 12.6160
119.4700 14.8315
119.4800 16.4641
119.4900 21.4185
119.5000 19.7525
119.5100 20.9362
119.5200 16.4018
119.5300 19.2900
119.5400 17.0415
119.5500 9.3864
119.5600 18.8230
119.5700 14.4586
119.5800 10.7745
119.5900 18.3022
119.6000 16.3894
119.6100 14.8594
119.6200 10.2184
119.6300 9.5824
119.6400 10.5517
119.6500 14.7811
119.6600 9.6946
119.6700 11.3776
119.6800 14.0166
119.6900 16.8055
119.7000 9.6059
119.7100 16.5464
119.7200 13.1974
119.7300 18.0588
119.7400 13.7214
119.7500 17.8670
119.7600 19.4025
119.7700 16.3948
119.7800 18.0153
119.7900 12.5471
119.8000 16.7168
119.8100 15.2682
119.8200 15.1446
119.8300 11.4713
119.8400 13.7010
119.8500 11.9279
119.8600 14.4522
119.8700 14.2343
119.8800 8.3077
119.8900 12.7612
119.9000 17.0507
119.9100 17.3444
119.9200 12.4370
119.9300 18.3921
119.9400 9.6061
119.9500 11.7795
119.9600 15.2017
119.9700 11.4951
119.9800 9.9937
119.9900 11.8992
