#Collected Data-38
#Intensity_unit=counts
#Attenuator_coefficient=1.000000
40.0000 22.0091
40.0100 23.3476
40.0200 15.3984
40.0300 18.9906
40.0400 19.9908
40.0500 23.0738
40.0600 21.2405
40.0700 25.8601
40.0800 19.6817
40.0900 21.8957
40.1000 15.1855
40.1100 24.0746
40.1200 21.3411
40.1300 25.7280
40.1400 22.7000
40.1500 37.1483
40.1600 22.0711
40.1700 22.3929
40.1800 23.7838
40.1900 24.1866
40.2000 33.4956
40.2100 25.9521
40.2200 30.0615
40.2300 20.1562
40.2400 14.9734
40.2500 20.2247
40.2600 14.8541
40.2700 23.2780
40.2800 20.8937
40.2900 23.2315
40.3000 29.6070
40.3100 29.9011
40.3200 23.4865
40.3300 21.5692
40.3400 13.8501
40.3500 26.2494
40.3600 27.0128
40.3700 21.3867
40.3800 18.6930
40.3900 28.7452
40.4000 25.5498
40.4100 22.5453
40.4200 22.0433
40.4300 21.9438
40.4400 21.0122
40.4500 22.5915
40.4600 17.7936
40.4700 26.9411
40.4800 13.4983
40.4900 18.0108
40.5000 15.7895
40.5100 19.5160
40.5200 16.2725
40.5300 18.7803
40.5400 20.4172
40.5500 21.5377
40.5600 21.6558
40.5700 19.8793
40.5800 15.3585
40.5900 20.3756
40.6000 23.7756
40.6100 13.0820
40.6200 18.7519
40.6300 18.4344
40.6400 22.8247
40.6500 13.9121
40.6600 29.4169
40.6700 22.3428
40.6800 28.1704
40.6900 24.9412
40.7000 24.7496
40.7100 12.4753
40.7200 20.5030
40.7300 21.8963
40.7400 17.0554
40.7500 18.9928
40.7600 26.3111
40.7700 17.6011
40.7800 24.0088
40.7900 19.2340
40.8000 19.1831
40.8100 24.6670
40.8200 16.5040
40.8300 26.0961
40.8400 22.7694
40.8500 21.1775
40.8600 30.2665
40.8700 22.8701
40.8800 11.4273
40.8900 16.4199
40.9000 20.5548
40.9100 25.8024
40.9200 31.6184
40.9300 21.5976
40.9400 24.8933
40.9500 27.2472
40.9600 19.8953
40.9700 17.1864
40.9800 23.7006
40.9900 22.8120
41.0000 24.7806
41.0100 15.6930
41.0200 16.4617
41.0300 21.1181
41.0400 21.4496
41.0500 17.1408
41.0600 23.4960
41.0700 18.8619
41.0800 22.8812
41.0900 19.2145
41.1000 19.2621
41.1100 15.2018
41.1200 13.3839
41.1300 17.2124
41.1400 20.7873
41.1500 22.4711
41.1600 23.0940
41.1700 17.0000
41.1800 14.8614
41.1900 19.5031
41.2000 17.2665
41.2100 29.4126
41.2200 21.4772
41.2300 31.6125
41.2400 20.6297
41.2500 32.2941
41.2600 24.9884
41.2700 15.5925
41.2800 19.0111
41.2900 15.7156
41.3000 17.4884
41.3100 28.8277
41.3200 19.3856
41.3300 26.2265
41.3400 24.0105
41.3500 24.4522
41.3600 23.4414
41.3700 22.4186
41.3800 15.6415
41.3900 19.8491
41.4000 17.4696
41.4100 17.2810
41.4200 19.4027
41.4300 17.6238
41.4400 22.9388
41.4500 25.8498
41.4600 17.4409
41.4700 25.3086
41.4800 24.8765
41.4900 22.9064
41.5000 23.0812
41.5100 29.4004
41.5200 22.7591
41.5300 27.6090
41.5400 19.8103
41.5500 24.4339
41.5600 25.6302
41.5700 16.3349
41.5800 18.4298
41.5900 20.8790
41.6000 28.7334
41.6100 20.6496
41.6200 24.3945
41.6300 17.4816
41.6400 20.2746
41.6500 21.7504
41.6600 21.6653
41.6700 24.9386
41.6800 21.4259
41.6900 21.9945
41.7000 18.5326
41.7100 18.8163
41.7200 17.5919
41.7300 19.7285
41.7400 25.6509
41.7500 16.7402
41.7600 17.7247
41.7700 17.6974
41.7800 26.9870
41.7900 16.4801
41.8000 26.5809
41.8100 22.3295
41.8200 16.3298
41.8300 22.7950
41.8400 19.4895
41.8500 19.5587
41.8600 22.4193
41.8700 23.5524
41.8800 24.6561
41.8900 19.5302
41.9000 21.5557
41.9100 22.7892
41.9200 27.0968
41.9300 24.4453
41.9400 20.0104
41.9500 27.0817
41.9600 24.8128
41.9700 24.0401
41.9800 17.5884
41.9900 34.2330
42.0000 30.3810
42.0100 25.1207
42.0200 23.9658
42.0300 16.6137
42.0400 17.8345
42.0500 17.7480
42.0600 27.2334
42.0700 27.7913
42.0800 21.0560
42.0900 19.2617
42.1000 18.4959
42.1100 32.4416
42.1200 26.4398
42.1300 22.9358
42.1400 24.4535
42.1500 13.9925
42.1600 18.7528
42.1700 34.1717
42.1800 24.8333
42.1900 28.3869
42.2000 15.5754
42.2100 23.0221
42.2200 22.5466
42.2300 25.9593
42.2400 27.4793
42.2500 20.5553
42.2600 29.0843
42.2700 17.8489
42.2800 24.0456
42.2900 15.1717
42.3000 29.8728
42.3100 21.7887
42.3200 21.9952
42.3300 18.7384
42.3400 23.3556
42.3500 21.3956
42.3600 21.9103
42.3700 24.9471
42.3800 21.1199
42.3900 31.2270
42.4000 18.9050
42.4100 17.8686
42.4200 19.2541
42.4300 25.7794
42.4400 27.0322
42.4500 24.4520
42.4600 20.1825
42.4700 22.6276
42.4800 17.3165
42.4900 23.6773
42.5000 27.3272
42.5100 17.3082
42.5200 20.1070
42.5300 19.8330
42.5400 21.1746
42.5500 22.6748
42.5600 17.3496
42.5700 28.4101
42.5800 20.6202
42.5900 23.4735
42.6000 24.7855
42.6100 21.2401
42.6200 20.0141
42.6300 27.9249
42.6400 25.8976
42.6500 20.5082
42.6600 24.0664
42.6700 17.2822
42.6800 25.6073
42.6900 15.4751
42.7000 26.6040
42.7100 15.4583
42.7200 25.2439
42.7300 17.1693
42.7400 21.5103
42.7500 15.7857
42.7600 19.2900
42.7700 26.0333
42.7800 21.4420
42.7900 20.3944
42.8000 21.5951
42.8100 11.1120
42.8200 14.9165
42.8300 20.6400
42.8400 21.2805
42.8500 15.2011
42.8600 16.3110
42.8700 17.7575
42.8800 21.0636
42.8900 24.4729
42.9000 18.8976
42.9100 22.4874
42.9200 26.7908
42.9300 26.8881
42.9400 27.6705
42.9500 26.1335
42.9600 33.0658
42.9700 23.2032
42.9800 16.8841
42.9900 17.5219
43.0000 23.8743
43.0100 14.9304
43.0200 24.0343
43.0300 26.3916
43.0400 19.7376
43.0500 16.8145
43.0600 19.1911
43.0700 28.7147
43.0800 16.8023
43.0900 26.3330
43.1000 26.2301
43.1100 18.4732
43.1200 26.0431
43.1300 19.7549
43.1400 18.4381
43.1500 14.7732
43.1600 20.0516
43.1700 17.4034
43.1800 26.2735
43.1900 21.4899
43.2000 24.3516
43.2100 20.3632
43.2200 23.6898
43.2300 27.8727
43.2400 20.5959
43.2500 16.7607
43.2600 25.0428
43.2700 21.2176
43.2800 24.5210
43.2900 26.4766
43.3000 24.9275
43.3100 26.9901
43.3200 21.0498
43.3300 17.0168
43.3400 18.2347
43.3500 21.5336
43.3600 14.9005
43.3700 23.1962
43.3800 17.5833
43.3900 25.5156
43.4000 20.6010
43.4100 18.2571
43.4200 12.3325
43.4300 18.2780
43.4400 15.6814
43.4500 22.4807
43.4600 29.6519
43.4700 21.7803
43.4800 18.0297
43.4900 21.4151
43.5000 20.9471
43.5100 18.0261
43.5200 20.3417
43.5300 11.5845
43.5400 26.1278
43.5500 25.1893
43.5600 29.7061
43.5700 23.3248
43.5800 23.4218
43.5900 26.0564
43.6000 20.0433
43.6100 24.2191
43.6200 27.2969
43.6300 27.5706
43.6400 13.3222
43.6500 22.6526
43.6600 13.8327
43.6700 19.9721
43.6800 17.3054
43.6900 16.6974
43.7000 18.8235
43.7100 25.8274
43.7200 19.2167
43.7300 22.5894
43.7400 20.8862
43.7500 24.1833
43.7600 19.1552
43.7700 23.2193
43.7800 20.2781
43.7900 25.7759
43.8000 23.3298
43.8100 28.5175
43.8200 27.0683
43.8300 29.3475
43.8400 24.7522
43.8500 23.4233
43.8600 21.6857
43.8700 26.4554
43.8800 21.9505
43.8900 26.9979
43.9000 27.4971
43.9100 17.7402
43.9200 23.9114
43.9300 16.7471
43.9400 17.2641
43.9500 30.8407
43.9600 30.4156
43.9700 22.1437
43.9800 20.4220
43.9900 21.0142
44.0000 19.8770
44.0100 20.5534
44.0200 17.0764
44.0300 25.6033
44.0400 30.4437
44.0500 21.0947
44.0600 21.2899
44.0700 23.9074
44.0800 26.2514
44.0900 25.1650
44.1000 28.3018
44.1100 28.0238
44.1200 25.9539
44.1300 28.4309
44.1400 27.3248
44.1500 28.5795
44.1600 22.6897
44.1700 34.6950
44.1800 31.8464
44.1900 48.5896
44.2000 31.5065
44.2100 48.5047
44.2200 47.6197
44.2300 53.2964
44.2400 50.5395
44.2500 51.6116
44.2600 69.7931
44.2700 62.9138
44.2800 57.6124
44.2900 56.7015
44.3000 71.0365
44.3100 74.8687
44.3200 81.7036
44.3300 98.2781
44.3400 119.9440
44.3500 128.6894
44.3600 136.4304
44.3700 183.1774
44.3800 204.0247
44.3900 253.2364
44.4000 296.5101
44.4100 290.4408
44.4200 321.6241
44.4300 425.7786
44.4400 449.7963
44.4500 490.3333
44.4600 503.6865
44.4700 531.2520
44.4800 576.2482
44.4900 586.8952
44.5000 631.7915
44.5100 601.9463
44.5200 631.4125
44.5300 616.2908
44.5400 649.1638
44.5500 630.0657
44.5600 611.4095
44.5700 593.7927
44.5800 569.0734
44.5900 523.5468
44.6000 519.7975
44.6100 471.3418
44.6200 398.4536
44.6300 358.0029
44.6400 281.6915
44.6500 253.9605
44.6600 218.0998
44.6700 148.9450
44.6800 149.1166
44.6900 149.3061
44.7000 118.2590
44.7100 104.6112
44.7200 75.9983
44.7300 73.4582
44.7400 78.9867
44.7500 65.1675
44.7600 56.3095
44.7700 50.2040
44.7800 47.6586
44.7900 36.0696
44.8000 39.4143
44.8100 42.0391
44.8200 28.0863
44.8300 28.8983
44.8400 30.5789
44.8500 34.8081
44.8600 27.8622
44.8700 39.9429
44.8800 30.5162
44.8900 40.8843
44.9000 25.7179
44.9100 28.7259
44.9200 29.3243
44.9300 33.3901
44.9400 33.8615
44.9500 28.4989
44.9600 27.9004
44.9700 15.7210
44.9800 22.3449
44.9900 27.3601
45.0000 19.2232
45.0100 31.8014
45.0200 19.8742
45.0300 20.1873
45.0400 24.3953
45.0500 25.6264
45.0600 28.4231
45.0700 22.9277
45.0800 22.8029
45.0900 20.9667
45.1000 19.8267
45.1100 16.1228
45.1200 19.1979
45.1300 15.9160
45.1400 30.7241
45.1500 20.6035
45.1600 23.1464
45.1700 23.5073
45.1800 33.4689
45.1900 23.0425
45.2000 26.7499
45.2100 18.6904
45.2200 19.5849
45.2300 24.0552
45.2400 24.1482
45.2500 18.4664
45.2600 19.2057
45.2700 20.4601
45.2800 20.7336
45.2900 26.3202
45.3000 24.8636
45.3100 23.4876
45.3200 22.5786
45.3300 19.7766
45.3400 17.5886
45.3500 25.7702
45.3600 20.8553
45.3700 14.9203
45.3800 20.7730
45.3900 14.9659
45.4000 21.5889
45.4100 18.5945
45.4200 23.2726
45.4300 16.4014
45.4400 19.0081
45.4500 18.0975
45.4600 19.5223
45.4700 12.9000
45.4800 16.4813
45.4900 14.3286
45.5000 14.4579
45.5100 18.3089
45.5200 19.4618
45.5300 23.4547
45.5400 27.8395
45.5500 26.7184
45.5600 28.0199
45.5700 17.7917
45.5800 20.2857
45.5900 25.0419
45.6000 19.1506
45.6100 21.9583
45.6200 18.8171
45.6300 20.1432
45.6400 21.5002
45.6500 18.6772
45.6600 16.6357
45.6700 22.7394
45.6800 24.5271
45.6900 18.1148
45.7000 15.5309
45.7100 14.1138
45.7200 21.5008
45.7300 22.9983
45.7400 16.5790
45.7500 23.5600
45.7600 24.7518
45.7700 15.8685
45.7800 21.5641
45.7900 16.0708
45.8000 17.0077
45.8100 23.7840
45.8200 11.2384
45.8300 12.9770
45.8400 16.5123
45.8500 22.5508
45.8600 20.3278
45.8700 15.0496
45.8800 27.2349
45.8900 20.8156
45.9000 19.7369
45.9100 22.4808
45.9200 20.4230
45.9300 24.7875
45.9400 24.4984
45.9500 22.4114
45.9600 21.5288
45.9700 16.7693
45.9800 14.4264
45.9900 21.0299
46.0000 28.0892
46.0100 17.3394
46.0200 25.2095
46.0300 16.4183
46.0400 18.1148
46.0500 19.8214
46.0600 19.9671
46.0700 23.0801
46.0800 17.2128
46.0900 23.0757
46.1000 19.7856
46.1100 17.3351
46.1200 20.9766
46.1300 22.1235
46.1400 14.0117
46.1500 17.1381
46.1600 18.4242
46.1700 14.1844
46.1800 24.0894
46.1900 25.6232
46.2000 16.3777
46.2100 23.4275
46.2200 20.7093
46.2300 15.5885
46.2400 12.6159
46.2500 22.1980
46.2600 23.6524
46.2700 29.8967
46.2800 18.5170
46.2900 15.7122
46.3000 14.7247
46.3100 20.1786
46.3200 26.3826
46.3300 21.9568
46.3400 15.5359
46.3500 23.8446
46.3600 18.7797
46.3700 27.7209
46.3800 21.2619
46.3900 25.2065
46.4000 15.9941
46.4100 19.0608
46.4200 20.8163
46.4300 15.5674
46.4400 16.3068
46.4500 19.7785
46.4600 20.4811
46.4700 25.1338
46.4800 16.9908
46.4900 23.7940
46.5000 20.7078
46.5100 19.2578
46.5200 17.7324
46.5300 25.0664
46.5400 21.6133
46.5500 26.3612
46.5600 18.5912
46.5700 25.1686
46.5800 10.5827
46.5900 17.3211
46.6000 17.9100
46.6100 19.9193
46.6200 25.4226
46.6300 19.4877
46.6400 24.4101
46.6500 23.6943
46.6600 22.4122
46.6700 27.4822
46.6800 19.6458
46.6900 23.9406
46.7000 23.7081
46.7100 23.0566
46.7200 24.2944
46.7300 16.4551
46.7400 18.3227
46.7500 26.2533
46.7600 20.4717
46.7700 21.6170
46.7800 24.9029
46.7900 18.2646
46.8000 23.5307
46.8100 22.7133
46.8200 16.9868
46.8300 17.6428
46.8400 24.0631
46.8500 23.1928
46.8600 26.2690
46.8700 16.7329
46.8800 18.1266
46.8900 23.8523
46.9000 20.4015
46.9100 22.5101
46.9200 9.7118
46.9300 26.1816
46.9400 21.0617
46.9500 17.4165
46.9600 25.1008
46.9700 20.7276
46.9800 26.5674
46.9900 18.4090
47.0000 22.1385
47.0100 18.1580
47.0200 22.4620
47.0300 15.7368
47.0400 19.9452
47.0500 18.0865
47.0600 12.9954
47.0700 29.8717
47.0800 23.2448
47.0900 21.5899
47.1000 20.1894
47.1100 18.0029
47.1200 19.1572
47.1300 18.7777
47.1400 19.1457
47.1500 13.4213
47.1600 20.8481
47.1700 19.0401
47.1800 21.1994
47.1900 16.8702
47.2000 19.9178
47.2100 20.4494
47.2200 22.1658
47.2300 18.4318
47.2400 24.4247
47.2500 16.3947
47.2600 17.1504
47.2700 17.3667
47.2800 17.2253
47.2900 25.3940
47.3000 17.8995
47.3100 23.1843
47.3200 17.8234
47.3300 16.8036
47.3400 22.3498
47.3500 23.8113
47.3600 20.1004
47.3700 18.5937
47.3800 13.3352
47.3900 24.7025
47.4000 18.4339
47.4100 18.1188
47.4200 15.9932
47.4300 22.0763
47.4400 21.5946
47.4500 11.3426
47.4600 26.0528
47.4700 17.9554
47.4800 20.3846
47.4900 14.8498
47.5000 23.2485
47.5100 18.6336
47.5200 16.9716
47.5300 14.6763
47.5400 14.0826
47.5500 15.1429
47.5600 21.0617
47.5700 23.8139
47.5800 16.4970
47.5900 16.7566
47.6000 16.0767
47.6100 18.9794
47.6200 27.1443
47.6300 19.6461
47.6400 18.6185
47.6500 20.9950
47.6600 18.7570
47.6700 17.1777
47.6800 18.1095
47.6900 20.3558
47.7000 14.0085
47.7100 24.7116
47.7200 19.3817
47.7300 18.5226
47.7400 18.8288
47.7500 19.0711
47.7600 18.7395
47.7700 24.4377
47.7800 12.0802
47.7900 18.4930
47.8000 16.8703
47.8100 13.9014
47.8200 23.2206
47.8300 15.2065
47.8400 15.3376
47.8500 14.6941
47.8600 15.8926
47.8700 20.9522
47.8800 29.1735
47.8900 21.2075
47.9000 11.6133
47.9100 27.3378
47.9200 17.9876
47.9300 21.6968
47.9400 17.9040
47.9500 18.3963
47.9600 15.7878
47.9700 19.9248
47.9800 18.8663
47.9900 25.0280
48.0000 19.8019
48.0100 19.2598
48.0200 21.9182
48.0300 25.1899
48.0400 15.6032
48.0500 19.9562
48.0600 23.5905
48.0700 17.3005
48.0800 20.0505
48.0900 11.9822
48.1000 11.1610
48.1100 14.9347
48.1200 18.3436
48.1300 25.2925
48.1400 22.6375
48.1500 23.2582
48.1600 31.8456
48.1700 16.1731
48.1800 16.6759
48.1900 25.0121
48.2000 27.0645
48.2100 25.5614
48.2200 15.8038
48.2300 18.0501
48.2400 20.3017
48.2500 24.3593
48.2600 26.1345
48.2700 27.6219
48.2800 21.6262
48.2900 21.3559
48.3000 26.2241
48.3100 21.0180
48.3200 19.8423
48.3300 17.4647
48.3400 17.0320
48.3500 19.9137
48.3600 16.2922
48.3700 22.6978
48.3800 25.9372
48.3900 19.0424
48.4000 21.9712
48.4100 21.1395
48.4200 14.8118
48.4300 21.7447
48.4400 22.9731
48.4500 22.1645
48.4600 19.9496
48.4700 23.3835
48.4800 15.9452
48.4900 14.2396
48.5000 23.8206
48.5100 14.4356
48.5200 18.4693
48.5300 22.6179
48.5400 15.7182
48.5500 21.0708
48.5600 22.9612
48.5700 23.0482
48.5800 11.7273
48.5900 19.2588
48.6000 20.4473
48.6100 22.7044
48.6200 15.4097
48.6300 28.6784
48.6400 25.9480
48.6500 26.7058
48.6600 13.3365
48.6700 23.4647
48.6800 18.2812
48.6900 18.8070
48.7000 17.7228
48.7100 12.9315
48.7200 18.7551
48.7300 19.1107
48.7400 24.0166
48.7500 20.8930
48.7600 20.2290
48.7700 23.7636
48.7800 21.0215
48.7900 23.5342
48.8000 15.2080
48.8100 19.9840
48.8200 17.2925
48.8300 22.2895
48.8400 19.5395
48.8500 14.7297
48.8600 12.9484
48.8700 17.4914
48.8800 18.0476
48.8900 14.1212
48.9000 13.8913
48.9100 14.0357
48.9200 19.4410
48.9300 17.1887
48.9400 21.6975
48.9500 19.4436
48.9600 16.9874
48.9700 19.2064
48.9800 18.0843
48.9900 15.1041
49.0000 21.2366
49.0100 19.0634
49.0200 26.4914
49.0300 17.0921
49.0400 22.9015
49.0500 16.7247
49.0600 18.1767
49.0700 14.0065
49.0800 20.1832
49.0900 11.5841
49.1000 13.4582
49.1100 18.9046
49.1200 25.5679
49.1300 21.6693
49.1400 18.9230
49.1500 18.3136
49.1600 26.3488
49.1700 17.9696
49.1800 19.7862
49.1900 16.0040
49.2000 25.3388
49.2100 19.9103
49.2200 21.7451
49.2300 17.9109
49.2400 20.6612
49.2500 16.3481
49.2600 27.8927
49.2700 17.3242
49.2800 16.4340
49.2900 23.0681
49.3000 20.1649
49.3100 26.1749
49.3200 22.0008
49.3300 20.0016
49.3400 21.1207
49.3500 9.9070
49.3600 14.8610
49.3700 23.1421
49.3800 23.0415
49.3900 18.7198
49.4000 20.8767
49.4100 16.0982
49.4200 16.1120
49.4300 14.5618
49.4400 15.7211
49.4500 16.4564
49.4600 18.4902
49.4700 13.7045
49.4800 21.8172
49.4900 18.4051
49.5000 21.2274
49.5100 19.2189
49.5200 25.2488
49.5300 19.8578
49.5400 18.7543
49.5500 17.9537
49.5600 16.7328
49.5700 17.5333
49.5800 19.4643
49.5900 18.7794
49.6000 24.4377
49.6100 17.2523
49.6200 26.2863
49.6300 19.3328
49.6400 19.1933
49.6500 19.0658
49.6600 20.0419
49.6700 11.8692
49.6800 19.6127
49.6900 14.5753
49.7000 20.6696
49.7100 16.8921
49.7200 18.2373
49.7300 15.0496
49.7400 20.1153
49.7500 17.0490
49.7600 16.5066
49.7700 15.4768
49.7800 22.0055
49.7900 23.4813
49.8000 17.1371
49.8100 17.9211
49.8200 8.4731
49.8300 20.8533
49.8400 19.9001
49.8500 23.1441
49.8600 19.0017
49.8700 18.6723
49.8800 20.9921
49.8900 20.4249
49.9000 18.7035
49.9100 27.3538
49.9200 25.3761
49.9300 26.5404
49.9400 19.6382
49.9500 18.7082
49.9600 18.7904
49.9700 14.4480
49.9800 15.9365
49.9900 17.1572
50.0000 18.9978
50.0100 23.5085
50.0200 13.8086
50.0300 15.9980
50.0400 14.1557
50.0500 12.9869
50.0600 17.2846
50.0700 19.6965
50.0800 21.3636
50.0900 19.3647
50.1000 11.8482
50.1100 13.7155
50.1200 16.3306
50.1300 12.2511
50.1400 14.6060
50.1500 17.3402
50.1600 15.6742
50.1700 23.2357
50.1800 23.5247
50.1900 22.0986
50.2000 14.4748
50.2100 22.1569
50.2200 14.6399
50.2300 12.9927
50.2400 19.5968
50.2500 11.5323
50.2600 13.7336
50.2700 18.1004
50.2800 20.2353
50.2900 12.2885
50.3000 17.2552
50.3100 14.6112
50.3200 18.4735
50.3300 19.6896
50.3400 19.5454
50.3500 26.8810
50.3600 16.9017
50.3700 17.9066
50.3800 14.4146
50.3900 25.4256
50.4000 21.0382
50.4100 19.0396
50.4200 19.0664
50.4300 18.8692
50.4400 20.6830
50.4500 18.5274
50.4600 17.9309
50.4700 31.0580
50.4800 18.5885
50.4900 19.7813
50.5000 17.8885
50.5100 16.3336
50.5200 20.2388
50.5300 19.7997
50.5400 22.5612
50.5500 15.5158
50.5600 19.5489
50.5700 19.5552
50.5800 15.5284
50.5900 17.8525
50.6000 27.2131
50.6100 25.4582
50.6200 22.5354
50.6300 23.3942
50.6400 28.1246
50.6500 16.0705
50.6600 19.0913
50.6700 20.1670
50.6800 27.3495
50.6900 19.3407
50.7000 19.9549
50.7100 14.4775
50.7200 19.0503
50.7300 34.3169
50.7400 18.1825
50.7500 19.8169
50.7600 12.5056
50.7700 18.4916
50.7800 13.7171
50.7900 18.7422
50.8000 14.0896
50.8100 14.2591
50.8200 14.5190
50.8300 13.8031
50.8400 9.0307
50.8500 8.7616
50.8600 10.8225
50.8700 23.7309
50.8800 26.5108
50.8900 21.7494
50.9000 23.3225
50.9100 18.8822
50.9200 14.3479
50.9300 19.2619
50.9400 14.2701
50.9500 17.9145
50.9600 20.0767
50.9700 16.6917
50.9800 13.0576
50.9900 12.0743
51.0000 13.1971
51.0100 17.6704
51.0200 16.8561
51.0300 20.4671
51.0400 15.6182
51.0500 15.3140
51.0600 15.3220
51.0700 21.8375
51.0800 20.9857
51.0900 22.7976
51.1000 18.0234
51.1100 23.2884
51.1200 16.8122
51.1300 17.1255
51.1400 14.2940
51.1500 20.6778
51.1600 27.4271
51.1700 23.3494
51.1800 18.6226
51.1900 17.8355
51.2000 16.8730
51.2100 20.6104
51.2200 23.2758
51.2300 20.9220
51.2400 18.3503
51.2500 18.8598
51.2600 17.0487
51.2700 22.1606
51.2800 21.8049
51.2900 21.4624
51.3000 19.9787
51.3100 21.4841
51.3200 21.4094
51.3300 11.8442
51.3400 23.7779
51.3500 28.3254
51.3600 22.9887
51.3700 21.3136
51.3800 17.8053
51.3900 14.4654
51.4000 23.2315
51.4100 23.1401
51.4200 22.8781
51.4300 21.9829
51.4400 25.6482
51.4500 23.0158
51.4600 15.9140
51.4700 20.7044
51.4800 22.1376
51.4900 20.3089
51.5000 16.9636
51.5100 25.1504
51.5200 16.0620
51.5300 22.5610
51.5400 21.4004
51.5500 13.8133
51.5600 14.7688
51.5700 19.9033
51.5800 27.0237
51.5900 24.7206
51.6000 18.0348
51.6100 24.8619
51.6200 8.5476
51.6300 13.1898
51.6400 12.2214
51.6500 12.4783
51.6600 12.8802
51.6700 19.3650
51.6800 15.8187
51.6900 18.6527
51.7000 20.5078
51.7100 17.6793
51.7200 17.2902
51.7300 18.7698
51.7400 20.1872
51.7500 17.4428
51.7600 15.7592
51.7700 21.1844
51.7800 25.0849
51.7900 18.0985
51.8000 18.8707
51.8100 19.4457
51.8200 17.3053
51.8300 11.6743
51.8400 19.9670
51.8500 24.0324
51.8600 16.5715
51.8700 27.6532
51.8800 16.4668
51.8900 15.5669
51.9000 28.5160
51.9100 25.3000
51.9200 14.7276
51.9300 14.5626
51.9400 20.6741
51.9500 13.5453
51.9600 13.1786
51.9700 16.8980
51.9800 25.3811
51.9900 23.4650
52.0000 16.3940
52.0100 21.1988
52.0200 19.8353
52.0300 22.4091
52.0400 20.3693
52.0500 14.4308
52.0600 17.3162
52.0700 16.9133
52.0800 25.4773
52.0900 20.7423
52.1000 16.9090
52.1100 17.6613
52.1200 21.5700
52.1300 19.5549
52.1400 20.9228
52.1500 25.5810
52.1600 26.6846
52.1700 15.1995
52.1800 23.1053
52.1900 17.3496
52.2000 14.9061
52.2100 16.4651
52.2200 19.4450
52.2300 16.5997
52.2400 25.0260
52.2500 14.5553
52.2600 21.2754
52.2700 20.6938
52.2800 13.6661
52.2900 19.4700
52.3000 23.3020
52.3100 18.6273
52.3200 18.1153
52.3300 19.6231
52.3400 23.3366
52.3500 16.3877
52.3600 24.9606
52.3700 24.6020
52.3800 22.2476
52.3900 16.3892
52.4000 18.6351
52.4100 21.0774
52.4200 18.0903
52.4300 12.1517
52.4400 21.9825
52.4500 19.7903
52.4600 13.4641
52.4700 20.6183
52.4800 20.2588
52.4900 22.0872
52.5000 19.2325
52.5100 19.3853
52.5200 26.0963
52.5300 17.3241
52.5400 30.9866
52.5500 22.2123
52.5600 32.0004
52.5700 20.0947
52.5800 26.8570
52.5900 23.5448
52.6000 23.9224
52.6100 20.6306
52.6200 18.8120
52.6300 22.8968
52.6400 19.4363
52.6500 18.8644
52.6600 13.3076
52.6700 25.6072
52.6800 18.1337
52.6900 15.1369
52.7000 19.8754
52.7100 20.0347
52.7200 16.6232
52.7300 21.2541
52.7400 22.0031
52.7500 10.3212
52.7600 18.7019
52.7700 23.0318
52.7800 19.6797
52.7900 23.1872
52.8000 11.9192
52.8100 9.9906
52.8200 15.7071
52.8300 14.1481
52.8400 19.6083
52.8500 15.6068
52.8600 24.4141
52.8700 17.3658
52.8800 20.1050
52.8900 17.8522
52.9000 18.6781
52.9100 16.6321
52.9200 17.5256
52.9300 24.6318
52.9400 27.5753
52.9500 12.7727
52.9600 16.5466
52.9700 19.5577
52.9800 28.0146
52.9900 16.4532
53.0000 20.6193
53.0100 25.1418
53.0200 18.4442
53.0300 17.3799
53.0400 17.9644
53.0500 14.8175
53.0600 17.0314
53.0700 15.9067
53.0800 16.0505
53.0900 16.6813
53.1000 22.1425
53.1100 17.3084
53.1200 21.0858
53.1300 22.4385
53.1400 16.5095
53.1500 16.7497
53.1600 12.1830
53.1700 15.7619
53.1800 20.4797
53.1900 18.3331
53.2000 24.8706
53.2100 19.1647
53.2200 15.1791
53.2300 17.4989
53.2400 20.7341
53.2500 18.2485
53.2600 23.8979
53.2700 18.5099
53.2800 14.5975
53.2900 22.9350
53.3000 27.4547
53.3100 12.6850
53.3200 22.5138
53.3300 19.2827
53.3400 16.7279
53.3500 24.1876
53.3600 20.4942
53.3700 12.9649
53.3800 15.8499
53.3900 11.7273
53.4000 11.5697
53.4100 11.5289
53.4200 17.7870
53.4300 13.8841
53.4400 19.4260
53.4500 21.9388
53.4600 16.1970
53.4700 16.5401
53.4800 25.3687
53.4900 22.4621
53.5000 17.7769
53.5100 20.1845
53.5200 22.9938
53.5300 21.6814
53.5400 14.3973
53.5500 18.0570
53.5600 18.4177
53.5700 22.9279
53.5800 13.6726
53.5900 18.6843
53.6000 20.5215
53.6100 13.7203
53.6200 18.5819
53.6300 11.7679
53.6400 23.2938
53.6500 28.2136
53.6600 17.1503
53.6700 15.2806
53.6800 10.1139
53.6900 13.9185
53.7000 18.8263
53.7100 17.0186
53.7200 16.9246
53.7300 24.4469
53.7400 16.3491
53.7500 18.4549
53.7600 17.7329
53.7700 17.6241
53.7800 16.4673
53.7900 11.5222
53.8000 19.8244
53.8100 23.5924
53.8200 22.8786
53.8300 19.7273
53.8400 15.8044
53.8500 12.1325
53.8600 20.9517
53.8700 15.7881
53.8800 17.3712
53.8900 18.4666
53.9000 20.8876
53.9100 18.2074
53.9200 12.2458
53.9300 19.6894
53.9400 15.7678
53.9500 13.7053
53.9600 18.1713
53.9700 24.5071
53.9800 22.1831
53.9900 23.8547
54.0000 22.6898
54.0100 24.9827
54.0200 24.2854
54.0300 16.9220
54.0400 17.5509
54.0500 15.0140
54.0600 14.3822
54.0700 19.7168
54.0800 21.1406
54.0900 13.2893
54.1000 22.2954
54.1100 21.0464
54.1200 28.3600
54.1300 17.0982
54.1400 29.7102
54.1500 18.8220
54.1600 19.9724
54.1700 16.5282
54.1800 25.0188
54.1900 13.0170
54.2000 18.1119
54.2100 21.5175
54.2200 25.5069
54.2300 18.1876
54.2400 19.1516
54.2500 20.9265
54.2600 19.5695
54.2700 25.4868
54.2800 28.9134
54.2900 11.0927
54.3000 18.1026
54.3100 16.6654
54.3200 17.6297
54.3300 22.5353
54.3400 25.8197
54.3500 15.0861
54.3600 15.0801
54.3700 9.3649
54.3800 23.9496
54.3900 17.7456
54.4000 13.9829
54.4100 14.8359
54.4200 18.9813
54.4300 18.9157
54.4400 21.1937
54.4500 17.1803
54.4600 10.3056
54.4700 16.2054
54.4800 21.4604
54.4900 16.2798
54.5000 32.6231
54.5100 12.1739
54.5200 26.7925
54.5300 11.9918
54.5400 23.7043
54.5500 16.3266
54.5600 24.0669
54.5700 12.4586
54.5800 24.0221
54.5900 15.5447
54.6000 20.8988
54.6100 20.9717
54.6200 20.6697
54.6300 20.4635
54.6400 14.1568
54.6500 12.7920
54.6600 14.8877
54.6700 19.8483
54.6800 28.3217
54.6900 10.8872
54.7000 21.7431
54.7100 15.8330
54.7200 18.6572
54.7300 15.2750
54.7400 19.7798
54.7500 11.6321
54.7600 13.6581
54.7700 17.4583
54.7800 21.4920
54.7900 15.7860
54.8000 16.8140
54.8100 19.3767
54.8200 14.5663
54.8300 19.9020
54.8400 16.2645
54.8500 15.6843
54.8600 14.6345
54.8700 11.0105
54.8800 14.5081
54.8900 17.7542
54.9000 25.9316
54.9100 22.2710
54.9200 19.4246
54.9300 18.7605
54.9400 22.2521
54.9500 15.7931
54.9600 13.3022
54.9700 15.8223
54.9800 16.2326
54.9900 17.0014
55.0000 30.7309
55.0100 31.5573
55.0200 23.9066
55.0300 23.7917
55.0400 20.1140
55.0500 20.2828
55.0600 20.5983
55.0700 19.2799
55.0800 19.7581
55.0900 19.3015
55.1000 19.5049
55.1100 13.9837
55.1200 24.1421
55.1300 16.3636
55.1400 15.6952
55.1500 14.6005
55.1600 23.7377
55.1700 15.4136
55.1800 24.5775
55.1900 16.7464
55.2000 20.5540
55.2100 22.9402
55.2200 28.1811
55.2300 17.3323
55.2400 13.9432
55.2500 19.7195
55.2600 14.8545
55.2700 15.0744
55.2800 24.9652
55.2900 17.3715
55.3000 17.0328
55.3100 13.8653
55.3200 14.9149
55.3300 14.1701
55.3400 17.8745
55.3500 20.7907
55.3600 25.9061
55.3700 16.9163
55.3800 11.6880
55.3900 20.4746
55.4000 24.2504
55.4100 16.0326
55.4200 21.5889
55.4300 13.7194
55.4400 15.0420
55.4500 25.9438
55.4600 23.6786
55.4700 16.2229
55.4800 21.3208
55.4900 14.4410
55.5000 18.5222
55.5100 16.7324
55.5200 27.3875
55.5300 22.0438
55.5400 24.6672
55.5500 22.6692
55.5600 24.7225
55.5700 15.8034
55.5800 15.7927
55.5900 17.1701
55.6000 31.7376
55.6100 18.3948
55.6200 19.6374
55.6300 20.4605
55.6400 18.9507
55.6500 23.2751
55.6600 20.7282
55.6700 20.2936
55.6800 22.6100
55.6900 14.7035
55.7000 17.2256
55.7100 21.4802
55.7200 16.2913
55.7300 23.9146
55.7400 20.0162
55.7500 19.6202
55.7600 27.1706
55.7700 23.7405
55.7800 20.6955
55.7900 21.9051
55.8000 19.8707
55.8100 20.3342
55.8200 15.2483
55.8300 17.8085
55.8400 16.3527
55.8500 30.1952
55.8600 29.0100
55.8700 21.9454
55.8800 12.8774
55.8900 20.1312
55.9000 14.5529
55.9100 22.5533
55.9200 13.0152
55.9300 17.4423
55.9400 16.3360
55.9500 9.7410
55.9600 15.2792
55.9700 17.1109
55.9800 20.0516
55.9900 22.8812
56.0000 20.8271
56.0100 18.5378
56.0200 25.6437
56.0300 22.6159
56.0400 26.8061
56.0500 20.8002
56.0600 27.4160
56.0700 16.0451
56.0800 20.1888
56.0900 17.9962
56.1000 15.9704
56.1100 14.9801
56.1200 15.9278
56.1300 17.3169
56.1400 21.1135
56.1500 27.0819
56.1600 18.1335
56.1700 21.9941
56.1800 15.3473
56.1900 20.0648
56.2000 16.3795
56.2100 20.0604
56.2200 20.4138
56.2300 22.5366
56.2400 17.9339
56.2500 16.1871
56.2600 15.0880
56.2700 17.4699
56.2800 16.6292
56.2900 19.3497
56.3000 18.6565
56.3100 16.9791
56.3200 21.7969
56.3300 20.1084
56.3400 21.0599
56.3500 17.9372
56.3600 15.8675
56.3700 14.7855
56.3800 25.6224
56.3900 20.5583
56.4000 23.0321
56.4100 16.0433
56.4200 21.1099
56.4300 16.8423
56.4400 21.9455
56.4500 19.1624
56.4600 17.3472
56.4700 18.2401
56.4800 15.6520
56.4900 25.8282
56.5000 21.3235
56.5100 18.3889
56.5200 27.4077
56.5300 22.4946
56.5400 22.2839
56.5500 20.5373
56.5600 18.4480
56.5700 17.0436
56.5800 19.4911
56.5900 14.8709
56.6000 17.6064
56.6100 17.8941
56.6200 18.1430
56.6300 16.9163
56.6400 24.7345
56.6500 16.8165
56.6600 8.2194
56.6700 12.3127
56.6800 27.3383
56.6900 14.8693
56.7000 21.4933
56.7100 16.3444
56.7200 23.4015
56.7300 19.2681
56.7400 21.8628
56.7500 14.1282
56.7600 25.5704
56.7700 24.9174
56.7800 15.5176
56.7900 17.0704
56.8000 20.4259
56.8100 19.2012
56.8200 15.3826
56.8300 14.4420
56.8400 17.6144
56.8500 14.6196
56.8600 18.6878
56.8700 12.4920
56.8800 11.1333
56.8900 18.8286
56.9000 20.8202
56.9100 24.5283
56.9200 20.9049
56.9300 16.6315
56.9400 25.0884
56.9500 17.0916
56.9600 18.7257
56.9700 17.6398
56.9800 13.9597
56.9900 16.7144
57.0000 19.0709
57.0100 21.2300
57.0200 14.0479
57.0300 19.5704
57.0400 13.1042
57.0500 20.3220
57.0600 15.0858
57.0700 22.4754
57.0800 11.2631
57.0900 16.0645
57.1000 15.3896
57.1100 17.8689
57.1200 25.1442
57.1300 20.3054
57.1400 14.5126
57.1500 17.2324
57.1600 19.7365
57.1700 20.2795
57.1800 22.2504
57.1900 18.1114
57.2000 16.4846
57.2100 23.0905
57.2200 12.9287
57.2300 17.2086
57.2400 20.6000
57.2500 22.5610
57.2600 19.5177
57.2700 19.5336
57.2800 19.7461
57.2900 21.7168
57.3000 19.8357
57.3100 18.1297
57.3200 19.6000
57.3300 19.7420
57.3400 13.2327
57.3500 21.5794
57.3600 23.6564
57.3700 26.1498
57.3800 21.9544
57.3900 17.6868
57.4000 22.6177
57.4100 18.4957
57.4200 23.0222
57.4300 12.9488
57.4400 22.9897
57.4500 16.1805
57.4600 13.5335
57.4700 11.8121
57.4800 16.6843
57.4900 12.4081
57.5000 18.8939
57.5100 21.7407
57.5200 16.7135
57.5300 13.6740
57.5400 20.2396
57.5500 22.4676
57.5600 17.4591
57.5700 18.5649
57.5800 17.1669
57.5900 19.6951
57.6000 20.5012
57.6100 16.8045
57.6200 12.2216
57.6300 18.0898
57.6400 14.4571
57.6500 18.0673
57.6600 24.2837
57.6700 21.3735
57.6800 18.8940
57.6900 23.4347
57.7000 21.1086
57.7100 22.0787
57.7200 12.4970
57.7300 16.4506
57.7400 22.7764
57.7500 23.8407
57.7600 20.3245
57.7700 22.3785
57.7800 14.2343
57.7900 15.5349
57.8000 16.3072
57.8100 18.1438
57.8200 18.3897
57.8300 21.9518
57.8400 28.9378
57.8500 14.9894
57.8600 18.9243
57.8700 14.4692
57.8800 23.9211
57.8900 20.0598
57.9000 18.1234
57.9100 13.1952
57.9200 16.4731
57.9300 11.4978
57.9400 19.8536
57.9500 17.1342
57.9600 18.6662
57.9700 14.3039
57.9800 14.7987
57.9900 21.1800
58.0000 22.0798
58.0100 14.4001
58.0200 15.1699
58.0300 12.2060
58.0400 17.5696
58.0500 16.7942
58.0600 12.1441
58.0700 20.7750
58.0800 14.4323
58.0900 15.7982
58.1000 14.7229
58.1100 18.0752
58.1200 14.2010
58.1300 13.0701
58.1400 15.7170
58.1500 15.8075
58.1600 14.8773
58.1700 17.0905
58.1800 22.6797
58.1900 14.5933
58.2000 24.1368
58.2100 12.7829
58.2200 14.9428
58.2300 9.1303
58.2400 24.1515
58.2500 18.8610
58.2600 19.1501
58.2700 8.6837
58.2800 19.9617
58.2900 22.2148
58.3000 26.8882
58.3100 11.8246
58.3200 17.8801
58.3300 21.1483
58.3400 18.1329
58.3500 17.5527
58.3600 13.8519
58.3700 15.0542
58.3800 21.8811
58.3900 23.3998
58.4000 19.6152
58.4100 13.9449
58.4200 23.8882
58.4300 13.1736
58.4400 18.0020
58.4500 11.9925
58.4600 9.3920
58.4700 19.4480
58.4800 16.5302
58.4900 24.0482
58.5000 14.6014
58.5100 11.7832
58.5200 17.2992
58.5300 17.9983
58.5400 17.9962
58.5500 19.2459
58.5600 15.8769
58.5700 15.8635
58.5800 16.9116
58.5900 23.4264
58.6000 18.1222
58.6100 24.8301
58.6200 13.8332
58.6300 11.2403
58.6400 12.2202
58.6500 16.3746
58.6600 20.6332
58.6700 16.8401
58.6800 14.7728
58.6900 8.9256
58.7000 21.2637
58.7100 8.9772
58.7200 20.5499
58.7300 22.2512
58.7400 19.7598
58.7500 15.2180
58.7600 13.9979
58.7700 19.3155
58.7800 26.7918
58.7900 17.5365
58.8000 18.0483
58.8100 14.7297
58.8200 12.8498
58.8300 17.4972
58.8400 10.0940
58.8500 21.3215
58.8600 18.7579
58.8700 17.7529
58.8800 13.2024
58.8900 20.5482
58.9000 21.1839
58.9100 14.6272
58.9200 16.2863
58.9300 24.4602
58.9400 23.7598
58.9500 18.2059
58.9600 21.0982
58.9700 19.4684
58.9800 13.4819
58.9900 25.9076
59.0000 13.1278
59.0100 12.4935
59.0200 13.0983
59.0300 16.7918
59.0400 19.1592
59.0500 21.3908
59.0600 24.0930
59.0700 15.9763
59.0800 16.7049
59.0900 20.3799
59.1000 18.1100
59.1100 13.0328
59.1200 18.9788
59.1300 18.3269
59.1400 14.7339
59.1500 26.6367
59.1600 12.7391
59.1700 16.3254
59.1800 22.3791
59.1900 27.6424
59.2000 22.8916
59.2100 30.9027
59.2200 18.0670
59.2300 24.8824
59.2400 13.5163
59.2500 22.5550
59.2600 24.1865
59.2700 22.1832
59.2800 14.2274
59.2900 17.6677
59.3000 29.1982
59.3100 18.9536
59.3200 24.1004
59.3300 21.9794
59.3400 24.0023
59.3500 32.5699
59.3600 19.4093
59.3700 21.2606
59.3800 19.3530
59.3900 19.2256
59.4000 18.6933
59.4100 15.7692
59.4200 16.1381
59.4300 23.9608
59.4400 21.0579
59.4500 14.8273
59.4600 20.5875
59.4700 18.5120
59.4800 22.0800
59.4900 22.3757
59.5000 18.3640
59.5100 18.7207
59.5200 15.1662
59.5300 16.0776
59.5400 27.9457
59.5500 22.3054
59.5600 21.8749
59.5700 21.1269
59.5800 19.4928
59.5900 13.2553
59.6000 14.2286
59.6100 16.5751
59.6200 17.7015
59.6300 14.8079
59.6400 18.6204
59.6500 20.0300
59.6600 20.2856
59.6700 18.3888
59.6800 14.5859
59.6900 14.6016
59.7000 14.7866
59.7100 13.0602
59.7200 18.4889
59.7300 17.3922
59.7400 16.9354
59.7500 16.9107
59.7600 21.5723
59.7700 12.1457
59.7800 14.4035
59.7900 17.0521
59.8000 10.5967
59.8100 12.4696
59.8200 22.1651
59.8300 17.5538
59.8400 25.1378
59.8500 21.3208
59.8600 23.1173
59.8700 15.5460
59.8800 14.7506
59.8900 19.4129
59.9000 16.7751
59.9100 17.1626
59.9200 15.8817
59.9300 17.6512
59.9400 22.3612
59.9500 24.3013
59.9600 29.3982
59.9700 18.8562
59.9800 19.0378
59.9900 15.3195
60.0000 12.7894
60.0100 12.0503
60.0200 15.0484
60.0300 18.1566
60.0400 22.0967
60.0500 20.1523
60.0600 14.7491
60.0700 16.5520
60.0800 13.2385
60.0900 20.1566
60.1000 13.6900
60.1100 17.8248
60.1200 18.8233
60.1300 19.7262
60.1400 18.2208
60.1500 21.7477
60.1600 28.5331
60.1700 12.0750
60.1800 23.2946
60.1900 18.2142
60.2000 16.3966
60.2100 17.5086
60.2200 15.7328
60.2300 19.4667
60.2400 20.3213
60.2500 14.6260
60.2600 20.5510
60.2700 16.8535
60.2800 19.7109
60.2900 10.9875
60.3000 17.2340
60.3100 20.4687
60.3200 11.3390
60.3300 12.8038
60.3400 19.3446
60.3500 15.6468
60.3600 19.6407
60.3700 17.0314
60.3800 18.4047
60.3900 22.6901
60.4000 17.3630
60.4100 18.2097
60.4200 25.2500
60.4300 17.8526
60.4400 21.9827
60.4500 17.8144
60.4600 17.8989
60.4700 16.0748
60.4800 12.4202
60.4900 25.2542
60.5000 14.6430
60.5100 27.7033
60.5200 17.9959
60.5300 42.5641
60.5400 21.0589
60.5500 28.5180
60.5600 23.1605
60.5700 18.3635
60.5800 18.0006
60.5900 31.5170
60.6000 20.2354
60.6100 18.4838
60.6200 16.1991
60.6300 10.7366
60.6400 15.8663
60.6500 14.2663
60.6600 18.4564
60.6700 18.2205
60.6800 11.1036
60.6900 13.1050
60.7000 18.8297
60.7100 17.6292
60.7200 17.5994
60.7300 15.8616
60.7400 16.0057
60.7500 24.2367
60.7600 13.3774
60.7700 17.7287
60.7800 17.7459
60.7900 26.3608
60.8000 13.0771
60.8100 15.7152
60.8200 18.6142
60.8300 14.1974
60.8400 15.7546
60.8500 26.6774
60.8600 18.6180
60.8700 25.3281
60.8800 12.0587
60.8900 9.6440
60.9000 24.2754
60.9100 14.8790
60.9200 15.4576
60.9300 16.1468
60.9400 20.9684
60.9500 14.4072
60.9600 21.0499
60.9700 14.7088
60.9800 15.4577
60.9900 15.2113
61.0000 15.8136
61.0100 15.0786
61.0200 11.2757
61.0300 19.9885
61.0400 23.0021
61.0500 14.7262
61.0600 17.1726
61.0700 20.4270
61.0800 21.0456
61.0900 21.8295
61.1000 19.3561
61.1100 23.9691
61.1200 17.7724
61.1300 26.3425
61.1400 14.9098
61.1500 18.8752
61.1600 18.3657
61.1700 13.5049
61.1800 19.1847
61.1900 21.1440
61.2000 20.2297
61.2100 12.1566
61.2200 11.5081
61.2300 16.7028
61.2400 18.4717
61.2500 26.7971
61.2600 17.8203
61.2700 18.3017
61.2800 19.3277
61.2900 28.8882
61.3000 20.6082
61.3100 15.5723
61.3200 15.1274
61.3300 19.5447
61.3400 28.6095
61.3500 16.0878
61.3600 18.6172
61.3700 24.2887
61.3800 6.9045
61.3900 9.3859
61.4000 19.0744
61.4100 12.3228
61.4200 19.6023
61.4300 18.2243
61.4400 20.1864
61.4500 15.5831
61.4600 25.5588
61.4700 20.0836
61.4800 14.8782
61.4900 17.1925
61.5000 18.5209
61.5100 16.0910
61.5200 11.8995
61.5300 14.2051
61.5400 17.4520
61.5500 11.7635
61.5600 16.8190
61.5700 16.3967
61.5800 20.6940
61.5900 11.7259
61.6000 19.9332
61.6100 16.5767
61.6200 13.7976
61.6300 15.1322
61.6400 20.1981
61.6500 16.9278
61.6600 19.9535
61.6700 19.5913
61.6800 17.0292
61.6900 19.9071
61.7000 20.7295
61.7100 20.1338
61.7200 20.1701
61.7300 18.4663
61.7400 12.8403
61.7500 21.6910
61.7600 17.8376
61.7700 17.4652
61.7800 22.5970
61.7900 14.9137
61.8000 20.4413
61.8100 14.5804
61.8200 23.2682
61.8300 20.0870
61.8400 20.6125
61.8500 14.1491
61.8600 17.4356
61.8700 19.6677
61.8800 17.4468
61.8900 22.7194
61.9000 15.8922
61.9100 12.4221
61.9200 14.7600
61.9300 19.2784
61.9400 19.4656
61.9500 17.6937
61.9600 17.0237
61.9700 19.3947
61.9800 16.6882
61.9900 15.5694
62.0000 21.1896
62.0100 20.3651
62.0200 23.6343
62.0300 19.6195
62.0400 15.7360
62.0500 16.8292
62.0600 21.3685
62.0700 15.5760
62.0800 15.7492
62.0900 9.8301
62.1000 16.8519
62.1100 21.5804
62.1200 17.4694
62.1300 20.9812
62.1400 20.9389
62.1500 23.2845
62.1600 17.9291
62.1700 15.9832
62.1800 18.7324
62.1900 18.8845
62.2000 16.6705
62.2100 14.3747
62.2200 16.8932
62.2300 25.1739
62.2400 21.9095
62.2500 19.5607
62.2600 23.5151
62.2700 11.7975
62.2800 22.1793
62.2900 13.6321
62.3000 20.1063
62.3100 19.6725
62.3200 19.0119
62.3300 11.6929
62.3400 19.2824
62.3500 18.9470
62.3600 20.4589
62.3700 16.8004
62.3800 15.0302
62.3900 15.9857
62.4000 22.8633
62.4100 22.7355
62.4200 20.4841
62.4300 19.3796
62.4400 21.5153
62.4500 12.9363
62.4600 25.2135
62.4700 20.4430
62.4800 14.7192
62.4900 10.5218
62.5000 18.3044
62.5100 18.1947
62.5200 22.7007
62.5300 19.9995
62.5400 22.1301
62.5500 17.5008
62.5600 19.7344
62.5700 15.7902
62.5800 25.3850
62.5900 19.2123
62.6000 21.6340
62.6100 22.8575
62.6200 21.0556
62.6300 24.0169
62.6400 18.9435
62.6500 13.8208
62.6600 14.0479
62.6700 22.2253
62.6800 17.8998
62.6900 15.9702
62.7000 16.7739
62.7100 15.9284
62.7200 21.4414
62.7300 13.8845
62.7400 22.0703
62.7500 10.8928
62.7600 13.7341
62.7700 18.2060
62.7800 20.9433
62.7900 20.9491
62.8000 15.3679
62.8100 28.0808
62.8200 19.6601
62.8300 15.4325
62.8400 17.5295
62.8500 26.1459
62.8600 16.1658
62.8700 15.1046
62.8800 21.8454
62.8900 13.0616
62.9000 21.4215
62.9100 23.7612
62.9200 16.0190
62.9300 19.7892
62.9400 15.4945
62.9500 24.2676
62.9600 20.1021
62.9700 24.3025
62.9800 23.1214
62.9900 26.2424
63.0000 20.2489
63.0100 19.4350
63.0200 16.7009
63.0300 21.8162
63.0400 24.9370
63.0500 18.3484
63.0600 16.2670
63.0700 17.1978
63.0800 16.5846
63.0900 13.4151
63.1000 12.9911
63.1100 20.5724
63.1200 16.6399
63.1300 16.7515
63.1400 16.7975
63.1500 11.1429
63.1600 21.5945
63.1700 12.1881
63.1800 17.0546
63.1900 18.4289
63.2000 19.4043
63.2100 18.2959
63.2200 15.4246
63.2300 20.1521
63.2400 16.5648
63.2500 21.9083
63.2600 23.0233
63.2700 20.3170
63.2800 25.2250
63.2900 25.3021
63.3000 19.4359
63.3100 21.7128
63.3200 23.5189
63.3300 23.0518
63.3400 22.1014
63.3500 16.7158
63.3600 20.5327
63.3700 14.2014
63.3800 16.5635
63.3900 19.1518
63.4000 14.8402
63.4100 24.6130
63.4200 18.9759
63.4300 23.7295
63.4400 19.5565
63.4500 21.4436
63.4600 10.9090
63.4700 13.8449
63.4800 19.2377
63.4900 18.0808
63.5000 22.1221
63.5100 20.7829
63.5200 22.9352
63.5300 20.0109
63.5400 18.1821
63.5500 13.2713
63.5600 16.9381
63.5700 16.6443
63.5800 26.8907
63.5900 14.8524
63.6000 12.2172
63.6100 14.3932
63.6200 12.4475
63.6300 18.2111
63.6400 17.8277
63.6500 16.6417
63.6600 12.1770
63.6700 20.1712
63.6800 22.6555
63.6900 16.4535
63.7000 21.8472
63.7100 21.9437
63.7200 21.7764
63.7300 25.4751
63.7400 18.4640
63.7500 21.4542
63.7600 14.8131
63.7700 11.8738
63.7800 20.1835
63.7900 12.2161
63.8000 22.9638
63.8100 19.0359
63.8200 14.4618
63.8300 16.1963
63.8400 8.8919
63.8500 23.1476
63.8600 23.8366
63.8700 25.4189
63.8800 15.2747
63.8900 22.2916
63.9000 11.8614
63.9100 17.2994
63.9200 23.0704
63.9300 19.3052
63.9400 23.1217
63.9500 18.5171
63.9600 15.9177
63.9700 10.1293
63.9800 19.4714
63.9900 24.7571
64.0000 17.0534
64.0100 19.0336
64.0200 20.5515
64.0300 21.9461
64.0400 17.6011
64.0500 19.4539
64.0600 19.2646
64.0700 19.1831
64.0800 23.2713
64.0900 19.6930
64.1000 24.6713
64.1100 13.3691
64.1200 20.8121
64.1300 25.3564
64.1400 24.5706
64.1500 21.7581
64.1600 22.5200
64.1700 22.5530
64.1800 18.5039
64.1900 14.5045
64.2000 15.1869
64.2100 13.8508
64.2200 19.5621
64.2300 17.6649
64.2400 21.5133
64.2500 21.3064
64.2600 20.0682
64.2700 25.5303
64.2800 21.9527
64.2900 18.1387
64.3000 20.7562
64.3100 29.0866
64.3200 28.7363
64.3300 19.7792
64.3400 19.1181
64.3500 20.8989
64.3600 24.9857
64.3700 16.2129
64.3800 23.7595
64.3900 18.1708
64.4000 22.8332
64.4100 23.9778
64.4200 28.9132
64.4300 24.8686
64.4400 23.6443
64.4500 25.2383
64.4600 27.1093
64.4700 28.5180
64.4800 25.8881
64.4900 42.5014
64.5000 30.9781
64.5100 36.5225
64.5200 37.5380
64.5300 24.4078
64.5400 38.0092
64.5500 37.1383
64.5600 39.3420
64.5700 44.9727
64.5800 43.1312
64.5900 50.7346
64.6000 44.4348
64.6100 57.8852
64.6200 44.7736
64.6300 52.5272
64.6400 51.9665
64.6500 49.5921
64.6600 63.7044
64.6700 57.2588
64.6800 65.7250
64.6900 72.2834
64.7000 69.1236
64.7100 85.5411
64.7200 62.9124
64.7300 59.6165
64.7400 67.5601
64.7500 69.2192
64.7600 68.7554
64.7700 70.7458
64.7800 78.1971
64.7900 84.9843
64.8000 88.8946
64.8100 82.0178
64.8200 80.7989
64.8300 80.6333
64.8400 61.8958
64.8500 83.0147
64.8600 75.3115
64.8700 57.7390
64.8800 65.7376
64.8900 72.5452
64.9000 56.4869
64.9100 59.3669
64.9200 64.1517
64.9300 50.9412
64.9400 44.5112
64.9500 41.6582
64.9600 47.6682
64.9700 54.8965
64.9800 48.5299
64.9900 39.2504
65.0000 29.4414
65.0100 28.6267
65.0200 44.3470
65.0300 40.8920
65.0400 28.6214
65.0500 25.2599
65.0600 25.3348
65.0700 32.2941
65.0800 29.8271
65.0900 32.3479
65.1000 28.6181
65.1100 28.2376
65.1200 26.0031
65.1300 32.8259
65.1400 36.1733
65.1500 31.9676
65.1600 18.8431
65.1700 20.7942
65.1800 24.1549
65.1900 16.9268
65.2000 22.1051
65.2100 19.6421
65.2200 19.7988
65.2300 19.6370
65.2400 27.9323
65.2500 24.0127
65.2600 24.8338
65.2700 16.1748
65.2800 25.8135
65.2900 16.8524
65.3000 15.6173
65.3100 24.0890
65.3200 17.8483
65.3300 21.9101
65.3400 22.1889
65.3500 22.2398
65.3600 23.6236
65.3700 17.9223
65.3800 18.2789
65.3900 21.9598
65.4000 19.2107
65.4100 18.6976
65.4200 29.0382
65.4300 19.1136
65.4400 21.2056
65.4500 16.8755
65.4600 23.6406
65.4700 26.7130
65.4800 25.3494
65.4900 14.9216
65.5000 22.3603
65.5100 13.5120
65.5200 26.3531
65.5300 16.0979
65.5400 15.2259
65.5500 18.5735
65.5600 20.2778
65.5700 19.9358
65.5800 15.9366
65.5900 24.6756
65.6000 16.7015
65.6100 20.7629
65.6200 22.6592
65.6300 20.5474
65.6400 20.7758
65.6500 20.5746
65.6600 20.0298
65.6700 11.1109
65.6800 14.1194
65.6900 14.0515
65.7000 17.9143
65.7100 24.0843
65.7200 20.3302
65.7300 18.8250
65.7400 16.4858
65.7500 22.8183
65.7600 19.3131
65.7700 25.0337
65.7800 14.0283
65.7900 13.1917
65.8000 14.7832
65.8100 19.4983
65.8200 16.3946
65.8300 16.1756
65.8400 18.9928
65.8500 14.0989
65.8600 18.1672
65.8700 15.6613
65.8800 14.7244
65.8900 7.9134
65.9000 11.5706
65.9100 19.0451
65.9200 22.5432
65.9300 22.9277
65.9400 21.0476
65.9500 12.4472
65.9600 11.8607
65.9700 15.5848
65.9800 24.3710
65.9900 17.0348
66.0000 23.5920
66.0100 14.3053
66.0200 17.1004
66.0300 20.1006
66.0400 17.6413
66.0500 24.9726
66.0600 21.2098
66.0700 17.7293
66.0800 20.0058
66.0900 12.1335
66.1000 14.8065
66.1100 8.5906
66.1200 18.9965
66.1300 19.0039
66.1400 23.0059
66.1500 15.4775
66.1600 18.9787
66.1700 19.5522
66.1800 15.9403
66.1900 18.4905
66.2000 21.6947
66.2100 23.4936
66.2200 16.1473
66.2300 17.4376
66.2400 26.4851
66.2500 17.2773
66.2600 17.3467
66.2700 13.0346
66.2800 14.4918
66.2900 15.5340
66.3000 14.9007
66.3100 17.2774
66.3200 19.7964
66.3300 18.1558
66.3400 15.3782
66.3500 18.9159
66.3600 17.2803
66.3700 27.5676
66.3800 19.2124
66.3900 21.7357
66.4000 21.9817
66.4100 18.9186
66.4200 16.3872
66.4300 18.7034
66.4400 28.9659
66.4500 10.9939
66.4600 19.3656
66.4700 14.0017
66.4800 16.4483
66.4900 15.9003
66.5000 18.6150
66.5100 19.6500
66.5200 15.6979
66.5300 17.9553
66.5400 23.8807
66.5500 22.4350
66.5600 12.6353
66.5700 20.7751
66.5800 11.7033
66.5900 13.6980
66.6000 12.8240
66.6100 17.3937
66.6200 14.0790
66.6300 23.4990
66.6400 11.5670
66.6500 12.1604
66.6600 13.1207
66.6700 22.5139
66.6800 19.9223
66.6900 21.0763
66.7000 21.0993
66.7100 14.5000
66.7200 13.2987
66.7300 23.6868
66.7400 16.1581
66.7500 18.6094
66.7600 17.8985
66.7700 16.7070
66.7800 16.4993
66.7900 17.6158
66.8000 15.7196
66.8100 16.7584
66.8200 21.5618
66.8300 15.1614
66.8400 20.9725
66.8500 23.6028
66.8600 18.1118
66.8700 18.0239
66.8800 17.3718
66.8900 13.9922
66.9000 16.2556
66.9100 17.3290
66.9200 17.6673
66.9300 19.3135
66.9400 15.1671
66.9500 20.2773
66.9600 20.9277
66.9700 25.3242
66.9800 21.4463
66.9900 15.9252
67.0000 15.4122
67.0100 18.5479
67.0200 14.2690
67.0300 18.3876
67.0400 13.8989
67.0500 18.4410
67.0600 18.0248
67.0700 21.5961
67.0800 16.0953
67.0900 16.2743
67.1000 13.2169
67.1100 17.3744
67.1200 19.6169
67.1300 21.7807
67.1400 18.3459
67.1500 15.5047
67.1600 15.1236
67.1700 17.5701
67.1800 16.9460
67.1900 26.4392
67.2000 23.9671
67.2100 23.1623
67.2200 14.9139
67.2300 17.4890
67.2400 12.7718
67.2500 11.5543
67.2600 19.4023
67.2700 18.4696
67.2800 22.8450
67.2900 22.5526
67.3000 18.4685
67.3100 11.7383
67.3200 21.5332
67.3300 23.7957
67.3400 23.9891
67.3500 20.6386
67.3600 22.9978
67.3700 18.1491
67.3800 23.5299
67.3900 16.8306
67.4000 18.2292
67.4100 26.9597
67.4200 20.5648
67.4300 20.3983
67.4400 23.6019
67.4500 25.8728
67.4600 21.3748
67.4700 15.0448
67.4800 15.7501
67.4900 18.1483
67.5000 21.8883
67.5100 22.1659
67.5200 12.8034
67.5300 11.0247
67.5400 16.6702
67.5500 16.4483
67.5600 18.5861
67.5700 14.9022
67.5800 16.3414
67.5900 21.2900
67.6000 17.2012
67.6100 23.5658
67.6200 14.5592
67.6300 13.7975
67.6400 15.0227
67.6500 16.0968
67.6600 15.3603
67.6700 17.9427
67.6800 21.0620
67.6900 23.4194
67.7000 21.7438
67.7100 15.2447
67.7200 13.5193
67.7300 22.0021
67.7400 16.2001
67.7500 24.7869
67.7600 27.7204
67.7700 18.4930
67.7800 25.3803
67.7900 22.2045
67.8000 18.9794
67.8100 30.6325
67.8200 22.1455
67.8300 13.2776
67.8400 15.4092
67.8500 17.3272
67.8600 19.4235
67.8700 21.5125
67.8800 20.4173
67.8900 23.1315
67.9000 22.5386
67.9100 21.3781
67.9200 12.8029
67.9300 22.1000
67.9400 19.7956
67.9500 20.4423
67.9600 19.1120
67.9700 19.2330
67.9800 23.1903
67.9900 15.5849
68.0000 16.9752
68.0100 21.7510
68.0200 17.0779
68.0300 22.6505
68.0400 21.2806
68.0500 21.6597
68.0600 22.5952
68.0700 15.4320
68.0800 25.4296
68.0900 19.6566
68.1000 16.0279
68.1100 18.1780
68.1200 11.3255
68.1300 20.2808
68.1400 16.8906
68.1500 21.3456
68.1600 22.5982
68.1700 13.3321
68.1800 14.3420
68.1900 25.1761
68.2000 18.7191
68.2100 10.2196
68.2200 12.4799
68.2300 8.3610
68.2400 12.6674
68.2500 16.6097
68.2600 15.0724
68.2700 17.8953
68.2800 19.3060
68.2900 15.2685
68.3000 22.6106
68.3100 23.0623
68.3200 23.2630
68.3300 12.8950
68.3400 21.2251
68.3500 13.6103
68.3600 11.9704
68.3700 19.6250
68.3800 29.0887
68.3900 9.4886
68.4000 10.8563
68.4100 15.5330
68.4200 18.9378
68.4300 19.2920
68.4400 22.7654
68.4500 20.1792
68.4600 15.3599
68.4700 15.0293
68.4800 18.3603
68.4900 19.5500
68.5000 23.9248
68.5100 24.8672
68.5200 15.0592
68.5300 20.0502
68.5400 18.5054
68.5500 17.2399
68.5600 24.2676
68.5700 16.3018
68.5800 23.8245
68.5900 24.0458
68.6000 18.0404
68.6100 15.3219
68.6200 14.4922
68.6300 13.2586
68.6400 20.9678
68.6500 14.7290
68.6600 17.6335
68.6700 18.2991
68.6800 23.3647
68.6900 20.2298
68.7000 17.8856
68.7100 18.9443
68.7200 22.9036
68.7300 14.7729
68.7400 15.0556
68.7500 14.7617
68.7600 18.4630
68.7700 21.6649
68.7800 19.3664
68.7900 15.8314
68.8000 14.9801
68.8100 21.7048
68.8200 14.8547
68.8300 11.2549
68.8400 19.5772
68.8500 21.3945
68.8600 17.1579
68.8700 15.8166
68.8800 15.3900
68.8900 12.1927
68.9000 21.2937
68.9100 22.7129
68.9200 15.4622
68.9300 19.7960
68.9400 14.1699
68.9500 20.2663
68.9600 16.1811
68.9700 16.3683
68.9800 19.8872
68.9900 10.0462
69.0000 15.8867
69.0100 21.5808
69.0200 16.5532
69.0300 16.6516
69.0400 26.7032
69.0500 11.7452
69.0600 14.2533
69.0700 10.3366
69.0800 16.6632
69.0900 11.7575
69.1000 15.0329
69.1100 13.4123
69.1200 17.1212
69.1300 14.6289
69.1400 24.6925
69.1500 15.0888
69.1600 29.3097
69.1700 16.3769
69.1800 11.0406
69.1900 19.8855
69.2000 29.0080
69.2100 18.4268
69.2200 22.1023
69.2300 17.9610
69.2400 13.1503
69.2500 24.1371
69.2600 17.8324
69.2700 22.2693
69.2800 18.2402
69.2900 14.6831
69.3000 19.2277
69.3100 19.3663
69.3200 14.9535
69.3300 17.1472
69.3400 17.8580
69.3500 20.0326
69.3600 18.7897
69.3700 23.4090
69.3800 18.0493
69.3900 18.5163
69.4000 14.1074
69.4100 19.5223
69.4200 23.8197
69.4300 15.0998
69.4400 20.3363
69.4500 16.6505
69.4600 13.3520
69.4700 9.8792
69.4800 20.7913
69.4900 22.5737
69.5000 13.4082
69.5100 22.3393
69.5200 12.1640
69.5300 15.7198
69.5400 17.6554
69.5500 20.5638
69.5600 15.9257
69.5700 22.4776
69.5800 20.3360
69.5900 24.8761
69.6000 15.1223
69.6100 16.9108
69.6200 8.0168
69.6300 20.3908
69.6400 13.1711
69.6500 20.3768
69.6600 24.1025
69.6700 17.2638
69.6800 12.8632
69.6900 19.5476
69.7000 19.1945
69.7100 28.2518
69.7200 19.1349
69.7300 14.9584
69.7400 19.4594
69.7500 13.1802
69.7600 17.6325
69.7700 19.2727
69.7800 16.4175
69.7900 16.9040
69.8000 20.1450
69.8100 21.7861
69.8200 20.0310
69.8300 11.4445
69.8400 10.1817
69.8500 17.6289
69.8600 13.8462
69.8700 17.6307
69.8800 10.4009
69.8900 15.1200
69.9000 16.0800
69.9100 20.2830
69.9200 21.2217
69.9300 17.2817
69.9400 10.1425
69.9500 15.3967
69.9600 16.3050
69.9700 21.7500
69.9800 20.1675
69.9900 16.1818
70.0000 21.3660
70.0100 15.2291
70.0200 27.8276
70.0300 13.7316
70.0400 18.7231
70.0500 17.5439
70.0600 18.0963
70.0700 23.2301
70.0800 22.7795
70.0900 18.4889
70.1000 17.1984
70.1100 20.0967
70.1200 15.9811
70.1300 27.0120
70.1400 16.0974
70.1500 21.4007
70.1600 18.8983
70.1700 17.0498
70.1800 20.2050
70.1900 14.2199
70.2000 20.6185
70.2100 15.6416
70.2200 14.5729
70.2300 18.8558
70.2400 17.2913
70.2500 13.6416
70.2600 15.7903
70.2700 22.2433
70.2800 15.7242
70.2900 24.7526
70.3000 16.6931
70.3100 24.7673
70.3200 19.1817
70.3300 22.8959
70.3400 13.4169
70.3500 21.8207
70.3600 21.6986
70.3700 20.3327
70.3800 13.7361
70.3900 20.8297
70.4000 20.1917
70.4100 16.2793
70.4200 20.5873
70.4300 17.5007
70.4400 15.6908
70.4500 16.9159
70.4600 22.8424
70.4700 14.0093
70.4800 15.9532
70.4900 20.9924
70.5000 20.8472
70.5100 11.1119
70.5200 20.4606
70.5300 13.5427
70.5400 15.9176
70.5500 17.4727
70.5600 20.9532
70.5700 16.3646
70.5800 20.6950
70.5900 16.7513
70.6000 20.3455
70.6100 17.2740
70.6200 13.8304
70.6300 20.5774
70.6400 13.9788
70.6500 18.8324
70.6600 21.3129
70.6700 28.0495
70.6800 15.2876
70.6900 16.2633
70.7000 12.1414
70.7100 19.8688
70.7200 20.0176
70.7300 14.4895
70.7400 21.7364
70.7500 18.7259
70.7600 15.3499
70.7700 14.5673
70.7800 22.4788
70.7900 22.3754
70.8000 14.5757
70.8100 19.2510
70.8200 24.8465
70.8300 18.1212
70.8400 17.4630
70.8500 15.9758
70.8600 15.4348
70.8700 13.8487
70.8800 11.8860
70.8900 17.6220
70.9000 16.2483
70.9100 16.9050
70.9200 19.3406
70.9300 12.5558
70.9400 13.7169
70.9500 19.7718
70.9600 14.0145
70.9700 10.3244
70.9800 24.2472
70.9900 13.9380
71.0000 17.3693
71.0100 13.1494
71.0200 15.0259
71.0300 7.7195
71.0400 20.7704
71.0500 21.9424
71.0600 22.1493
71.0700 16.3117
71.0800 16.2945
71.0900 16.7922
71.1000 15.8150
71.1100 19.6326
71.1200 17.4764
71.1300 18.8469
71.1400 18.3272
71.1500 16.7832
71.1600 14.3217
71.1700 18.3890
71.1800 19.5394
71.1900 14.7510
71.2000 16.6388
71.2100 14.1022
71.2200 15.9867
71.2300 16.9491
71.2400 15.5199
71.2500 17.4076
71.2600 17.0752
71.2700 18.9785
71.2800 14.6590
71.2900 15.1355
71.3000 14.1436
71.3100 12.1414
71.3200 11.8285
71.3300 5.1459
71.3400 19.5640
71.3500 20.0710
71.3600 31.3510
71.3700 17.7674
71.3800 34.8304
71.3900 11.7272
71.4000 35.4772
71.4100 17.3313
71.4200 23.5657
71.4300 16.3574
71.4400 17.7695
71.4500 19.8355
71.4600 23.3635
71.4700 15.3754
71.4800 15.2967
71.4900 20.9495
71.5000 22.7441
71.5100 15.6549
71.5200 12.6329
71.5300 17.2630
71.5400 14.6226
71.5500 16.3132
71.5600 18.9972
71.5700 17.8220
71.5800 11.8734
71.5900 18.8048
71.6000 20.4685
71.6100 18.6208
71.6200 20.2465
71.6300 15.4975
71.6400 17.4021
71.6500 12.6244
71.6600 18.6222
71.6700 14.3993
71.6800 13.7381
71.6900 19.1792
71.7000 24.5741
71.7100 16.8033
71.7200 20.5042
71.7300 19.9623
71.7400 17.5053
71.7500 13.9495
71.7600 25.4993
71.7700 17.6383
71.7800 12.4817
71.7900 8.9514
71.8000 13.7797
71.8100 22.6026
71.8200 24.7921
71.8300 29.3207
71.8400 15.6239
71.8500 14.4098
71.8600 19.9344
71.8700 14.6597
71.8800 17.1158
71.8900 19.4592
71.9000 15.3178
71.9100 19.1765
71.9200 20.4534
71.9300 16.9641
71.9400 22.5025
71.9500 13.9020
71.9600 14.9394
71.9700 15.8391
71.9800 15.4543
71.9900 21.2651
72.0000 15.2916
72.0100 13.2975
72.0200 21.7859
72.0300 16.9671
72.0400 18.5620
72.0500 23.4737
72.0600 26.9217
72.0700 24.4921
72.0800 17.6457
72.0900 18.5212
72.1000 15.7811
72.1100 19.2472
72.1200 21.5515
72.1300 12.2408
72.1400 22.7500
72.1500 18.0135
72.1600 20.5877
72.1700 18.1101
72.1800 17.6357
72.1900 17.4509
72.2000 19.6404
72.2100 18.2200
72.2200 18.9404
72.2300 16.8774
72.2400 23.3634
72.2500 19.9930
72.2600 18.8889
72.2700 20.2388
72.2800 16.8205
72.2900 17.9078
72.3000 21.3745
72.3100 22.4191
72.3200 24.0203
72.3300 15.1431
72.3400 29.5272
72.3500 20.1384
72.3600 26.0583
72.3700 13.6708
72.3800 22.6133
72.3900 15.7477
72.4000 16.2543
72.4100 16.2537
72.4200 13.7066
72.4300 18.5653
72.4400 21.4968
72.4500 18.9195
72.4600 22.0251
72.4700 14.7632
72.4800 19.0951
72.4900 18.9452
72.5000 15.9760
72.5100 18.6542
72.5200 16.9548
72.5300 14.5075
72.5400 24.1353
72.5500 13.7685
72.5600 17.7514
72.5700 11.8898
72.5800 14.0902
72.5900 22.1946
72.6000 17.6515
72.6100 19.0841
72.6200 27.5931
72.6300 16.2109
72.6400 17.4472
72.6500 26.9569
72.6600 15.5103
72.6700 23.5571
72.6800 16.2760
72.6900 20.6218
72.7000 15.1394
72.7100 16.5173
72.7200 21.1452
72.7300 14.9297
72.7400 18.3645
72.7500 9.8022
72.7600 15.3219
72.7700 19.8892
72.7800 15.9043
72.7900 17.6867
72.8000 21.6836
72.8100 16.6191
72.8200 18.5195
72.8300 16.7317
72.8400 23.7106
72.8500 15.3411
72.8600 17.3521
72.8700 17.9801
72.8800 21.8025
72.8900 14.9465
72.9000 18.0822
72.9100 12.9792
72.9200 14.2702
72.9300 11.7697
72.9400 17.4613
72.9500 10.5659
72.9600 16.8408
72.9700 17.3345
72.9800 13.1742
72.9900 12.3854
73.0000 19.6373
73.0100 14.8424
73.0200 18.3725
73.0300 21.3290
73.0400 14.4237
73.0500 20.1346
73.0600 13.2956
73.0700 16.4236
73.0800 20.3175
73.0900 22.2518
73.1000 25.4674
73.1100 23.7423
73.1200 16.9218
73.1300 16.6824
73.1400 25.5385
73.1500 12.7298
73.1600 14.5458
73.1700 15.0595
73.1800 12.4613
73.1900 16.3335
73.2000 18.3273
73.2100 17.3614
73.2200 23.0714
73.2300 19.5271
73.2400 19.8115
73.2500 12.4934
73.2600 19.7433
73.2700 19.9632
73.2800 12.7896
73.2900 15.6123
73.3000 13.7995
73.3100 12.0168
73.3200 16.7096
73.3300 10.5220
73.3400 11.1429
73.3500 20.2644
73.3600 15.2143
73.3700 23.6745
73.3800 17.1898
73.3900 18.9595
73.4000 20.0489
73.4100 12.7842
73.4200 12.7617
73.4300 20.3232
73.4400 13.6289
73.4500 21.4396
73.4600 10.2110
73.4700 15.6142
73.4800 16.1036
73.4900 22.7311
73.5000 18.8438
73.5100 19.0404
73.5200 16.0058
73.5300 17.9994
73.5400 26.2356
73.5500 25.4652
73.5600 16.0667
73.5700 16.2875
73.5800 22.0080
73.5900 12.8332
73.6000 20.7864
73.6100 19.5389
73.6200 17.8553
73.6300 11.1658
73.6400 15.2788
73.6500 12.1492
73.6600 13.8507
73.6700 15.7830
73.6800 14.0133
73.6900 18.6264
73.7000 15.3413
73.7100 19.9911
73.7200 17.7899
73.7300 21.9017
73.7400 17.7706
73.7500 12.1080
73.7600 17.3123
73.7700 18.8993
73.7800 22.9458
73.7900 11.6872
73.8000 14.1309
73.8100 18.2217
73.8200 15.0337
73.8300 13.5443
73.8400 13.8288
73.8500 14.2187
73.8600 9.9923
73.8700 17.4926
73.8800 12.5900
73.8900 23.6917
73.9000 11.9910
73.9100 9.8346
73.9200 10.1561
73.9300 12.9169
73.9400 15.3274
73.9500 18.4295
73.9600 13.4179
73.9700 23.2729
73.9800 16.3119
73.9900 14.2712
74.0000 15.5449
74.0100 23.4606
74.0200 17.7570
74.0300 14.5724
74.0400 13.3198
74.0500 22.1576
74.0600 12.9556
74.0700 13.7453
74.0800 20.3865
74.0900 16.6634
74.1000 17.3565
74.1100 15.6599
74.1200 16.9909
74.1300 15.3207
74.1400 13.9830
74.1500 9.0707
74.1600 12.3592
74.1700 19.8410
74.1800 24.0766
74.1900 8.3858
74.2000 12.1826
74.2100 12.1258
74.2200 10.0307
74.2300 13.5160
74.2400 22.1422
74.2500 21.9290
74.2600 12.0985
74.2700 20.4992
74.2800 14.1127
74.2900 20.3526
74.3000 7.7872
74.3100 20.3013
74.3200 18.2382
74.3300 20.4523
74.3400 19.6781
74.3500 14.8460
74.3600 11.9793
74.3700 19.3706
74.3800 17.8227
74.3900 17.0482
74.4000 16.0337
74.4100 18.4479
74.4200 23.2088
74.4300 19.5828
74.4400 24.0727
74.4500 15.0713
74.4600 19.0707
74.4700 24.5351
74.4800 14.6583
74.4900 20.8907
74.5000 16.7340
74.5100 17.4446
74.5200 18.1521
74.5300 23.8067
74.5400 19.9191
74.5500 23.9923
74.5600 19.1502
74.5700 19.4930
74.5800 16.1487
74.5900 20.0036
74.6000 22.7626
74.6100 22.1959
74.6200 19.8767
74.6300 25.3896
74.6400 23.7302
74.6500 23.6930
74.6600 20.0023
74.6700 7.5892
74.6800 17.8906
74.6900 17.3408
74.7000 16.2043
74.7100 15.2482
74.7200 19.8649
74.7300 15.7811
74.7400 15.1460
74.7500 21.7738
74.7600 18.0599
74.7700 28.9611
74.7800 19.2148
74.7900 13.6591
74.8000 18.6307
74.8100 11.9221
74.8200 26.1437
74.8300 25.6686
74.8400 20.9647
74.8500 16.7736
74.8600 20.3318
74.8700 15.0672
74.8800 21.0170
74.8900 21.2170
74.9000 26.5704
74.9100 11.5345
74.9200 15.0876
74.9300 11.4552
74.9400 22.8536
74.9500 15.6714
74.9600 26.5570
74.9700 25.6250
74.9800 18.7036
74.9900 17.1218
75.0000 12.8023
75.0100 9.2595
75.0200 15.5716
75.0300 23.6810
75.0400 20.8128
75.0500 20.8230
75.0600 22.1271
75.0700 14.4198
75.0800 16.1634
75.0900 20.1614
75.1000 23.3523
75.1100 17.5012
75.1200 19.0896
75.1300 9.3008
75.1400 21.0043
75.1500 15.8996
75.1600 14.3094
75.1700 11.9946
75.1800 12.3260
75.1900 25.1140
75.2000 7.7000
75.2100 23.6350
75.2200 17.0793
75.2300 14.8846
75.2400 23.1430
75.2500 29.2301
75.2600 19.1338
75.2700 21.9041
75.2800 23.6574
75.2900 17.0557
75.3000 10.9256
75.3100 22.3541
75.3200 10.8136
75.3300 18.7118
75.3400 17.6971
75.3500 23.1716
75.3600 22.9126
75.3700 17.5929
75.3800 18.9111
75.3900 14.4573
75.4000 18.0117
75.4100 18.2944
75.4200 21.3300
75.4300 13.4429
75.4400 19.0046
75.4500 18.1113
75.4600 19.0465
75.4700 15.0403
75.4800 22.6549
75.4900 17.1805
75.5000 16.8393
75.5100 12.2145
75.5200 13.4567
75.5300 13.2428
75.5400 25.0744
75.5500 15.7217
75.5600 14.1465
75.5700 13.7080
75.5800 20.9972
75.5900 24.2512
75.6000 13.7767
75.6100 21.5739
75.6200 19.1464
75.6300 14.1973
75.6400 12.4936
75.6500 18.7185
75.6600 17.3812
75.6700 19.7231
75.6800 19.8358
75.6900 25.5143
75.7000 16.8555
75.7100 16.7537
75.7200 11.3873
75.7300 10.0797
75.7400 13.0542
75.7500 27.2196
75.7600 20.9760
75.7700 19.1497
75.7800 24.4045
75.7900 17.5209
75.8000 22.9769
75.8100 24.9246
75.8200 18.7175
75.8300 20.4673
75.8400 26.1709
75.8500 19.3805
75.8600 16.4941
75.8700 18.7477
75.8800 15.1334
75.8900 10.6156
75.9000 13.7151
75.9100 16.2224
75.9200 17.8019
75.9300 19.7991
75.9400 16.6655
75.9500 17.8613
75.9600 20.4560
75.9700 18.7543
75.9800 19.4359
75.9900 14.0268
76.0000 14.6101
76.0100 15.6817
76.0200 13.9064
76.0300 14.1843
76.0400 15.4243
76.0500 12.4952
76.0600 19.9029
76.0700 15.4786
76.0800 10.5877
76.0900 10.6669
76.1000 11.0065
76.1100 11.6248
76.1200 24.0892
76.1300 20.4059
76.1400 17.1531
76.1500 19.3261
76.1600 12.4579
76.1700 26.0487
76.1800 12.6973
76.1900 16.8683
76.2000 16.0916
76.2100 18.4524
76.2200 14.6223
76.2300 17.8518
76.2400 19.8790
76.2500 17.9764
76.2600 16.5198
76.2700 19.9974
76.2800 23.0888
76.2900 14.1365
76.3000 19.5934
76.3100 13.6633
76.3200 17.4645
76.3300 15.7536
76.3400 19.2126
76.3500 18.8067
76.3600 23.8909
76.3700 14.2689
76.3800 27.0814
76.3900 16.9331
76.4000 20.7660
76.4100 14.6468
76.4200 22.3405
76.4300 22.0911
76.4400 18.9130
76.4500 20.7073
76.4600 13.5341
76.4700 15.8027
76.4800 23.3328
76.4900 25.9893
76.5000 21.2491
76.5100 21.8612
76.5200 15.6019
76.5300 12.9063
76.5400 15.6992
76.5500 9.5445
76.5600 12.5692
76.5700 9.7240
76.5800 24.0186
76.5900 22.1788
76.6000 20.5252
76.6100 17.9996
76.6200 14.8498
76.6300 20.8493
76.6400 18.9541
76.6500 17.9109
76.6600 20.0625
76.6700 31.3892
76.6800 14.5679
76.6900 21.9900
76.7000 26.9563
76.7100 27.2936
76.7200 30.4467
76.7300 32.2375
76.7400 31.1872
76.7500 23.0144
76.7600 21.4027
76.7700 21.9445
76.7800 17.6264
76.7900 17.7904
76.8000 13.5498
76.8100 17.6215
76.8200 28.2216
76.8300 20.1204
76.8400 20.4851
76.8500 17.7692
76.8600 20.6681
76.8700 14.9906
76.8800 19.4431
76.8900 19.0618
76.9000 10.4501
76.9100 16.2481
76.9200 20.2759
76.9300 14.9327
76.9400 8.3894
76.9500 14.3714
76.9600 23.0350
76.9700 20.1911
76.9800 16.5436
76.9900 18.7047
77.0000 14.0423
77.0100 11.9405
77.0200 13.0492
77.0300 19.5206
77.0400 10.5863
77.0500 13.4166
77.0600 13.1147
77.0700 13.7376
77.0800 16.5760
77.0900 23.0917
77.1000 19.9938
77.1100 23.6929
77.1200 23.4532
77.1300 16.9883
77.1400 22.4618
77.1500 17.5956
77.1600 11.3826
77.1700 11.5928
77.1800 13.2445
77.1900 17.1188
77.2000 11.8573
77.2100 17.3998
77.2200 20.4239
77.2300 21.5855
77.2400 10.7585
77.2500 14.8634
77.2600 18.3000
77.2700 14.9141
77.2800 13.5880
77.2900 11.3270
77.3000 17.9927
77.3100 20.8337
77.3200 18.4273
77.3300 23.1755
77.3400 15.9703
77.3500 23.6337
77.3600 15.9820
77.3700 18.7414
77.3800 16.4703
77.3900 12.4943
77.4000 16.3080
77.4100 17.9680
77.4200 18.6929
77.4300 11.4017
77.4400 21.3739
77.4500 22.2322
77.4600 18.2348
77.4700 18.9957
77.4800 19.8466
77.4900 19.0420
77.5000 17.8000
77.5100 13.0573
77.5200 26.1019
77.5300 22.3763
77.5400 14.3528
77.5500 14.5615
77.5600 21.1714
77.5700 15.7314
77.5800 16.5758
77.5900 15.9071
77.6000 22.7522
77.6100 21.9182
77.6200 19.7512
77.6300 15.2532
77.6400 21.3159
77.6500 25.7100
77.6600 16.9346
77.6700 16.6390
77.6800 16.6841
77.6900 15.7999
77.7000 17.7115
77.7100 18.6987
77.7200 14.7331
77.7300 17.1482
77.7400 24.6217
77.7500 27.1221
77.7600 20.7499
77.7700 22.8042
77.7800 18.6281
77.7900 16.1799
77.8000 22.1893
77.8100 14.5203
77.8200 15.2285
77.8300 13.3666
77.8400 11.5940
77.8500 25.3801
77.8600 13.4411
77.8700 19.9978
77.8800 27.8656
77.8900 21.7055
77.9000 17.9032
77.9100 18.0429
77.9200 19.3590
77.9300 20.7093
77.9400 16.9075
77.9500 18.2697
77.9600 21.4285
77.9700 12.6346
77.9800 14.9685
77.9900 21.1182
78.0000 20.5378
78.0100 17.7685
78.0200 16.8951
78.0300 7.3782
78.0400 15.0522
78.0500 17.3384
78.0600 21.6794
78.0700 14.0572
78.0800 15.5482
78.0900 12.8039
78.1000 16.4618
78.1100 17.2220
78.1200 12.5545
78.1300 19.4202
78.1400 19.5160
78.1500 16.9295
78.1600 18.8507
78.1700 19.5948
78.1800 13.8684
78.1900 21.3874
78.2000 18.5385
78.2100 15.0828
78.2200 16.3430
78.2300 18.0301
78.2400 20.2910
78.2500 18.8459
78.2600 16.5651
78.2700 20.9356
78.2800 11.3720
78.2900 20.2488
78.3000 13.1453
78.3100 16.3371
78.3200 17.4650
78.3300 19.3109
78.3400 17.4330
78.3500 16.1361
78.3600 16.1110
78.3700 15.4557
78.3800 17.2303
78.3900 23.1292
78.4000 21.0794
78.4100 13.1804
78.4200 20.6261
78.4300 11.7721
78.4400 13.1640
78.4500 11.8164
78.4600 15.0912
78.4700 15.7110
78.4800 20.4780
78.4900 22.2035
78.5000 23.5111
78.5100 18.9991
78.5200 21.5714
78.5300 12.2688
78.5400 26.8755
78.5500 18.8297
78.5600 21.1641
78.5700 16.5602
78.5800 18.2489
78.5900 16.0069
78.6000 17.7425
78.6100 6.3724
78.6200 16.8493
78.6300 14.8135
78.6400 20.9706
78.6500 13.3809
78.6600 10.4117
78.6700 13.1031
78.6800 18.7798
78.6900 16.1991
78.7000 14.7773
78.7100 14.6462
78.7200 19.7362
78.7300 22.4608
78.7400 25.4949
78.7500 16.9535
78.7600 15.6691
78.7700 18.9530
78.7800 13.0132
78.7900 16.0932
78.8000 20.3689
78.8100 19.0804
78.8200 13.3997
78.8300 10.7001
78.8400 21.6470
78.8500 16.8324
78.8600 15.0494
78.8700 13.2127
78.8800 20.1759
78.8900 18.6387
78.9000 18.4545
78.9100 22.7976
78.9200 16.5513
78.9300 15.4636
78.9400 15.5769
78.9500 18.6101
78.9600 14.1224
78.9700 14.2730
78.9800 17.1143
78.9900 17.7327
79.0000 16.3129
79.0100 18.0048
79.0200 16.9931
79.0300 18.4629
79.0400 11.8228
79.0500 21.3223
79.0600 23.2082
79.0700 19.7264
79.0800 15.7196
79.0900 18.1915
79.1000 21.2425
79.1100 27.7096
79.1200 20.8014
79.1300 12.6942
79.1400 15.2438
79.1500 18.3989
79.1600 17.1148
79.1700 26.1036
79.1800 20.7841
79.1900 20.6260
79.2000 16.0392
79.2100 16.2867
79.2200 11.5706
79.2300 18.6403
79.2400 18.0177
79.2500 18.1136
79.2600 19.6217
79.2700 17.5500
79.2800 20.4208
79.2900 18.1689
79.3000 13.1074
79.3100 20.1663
79.3200 21.1801
79.3300 19.0174
79.3400 26.3484
79.3500 13.4933
79.3600 22.5070
79.3700 17.8434
79.3800 13.4086
79.3900 16.6713
79.4000 13.5942
79.4100 22.1051
79.4200 17.4894
79.4300 14.8395
79.4400 16.6390
79.4500 20.7345
79.4600 20.3164
79.4700 22.2472
79.4800 17.8978
79.4900 24.4667
79.5000 18.5977
79.5100 18.3486
79.5200 18.5823
79.5300 14.3177
79.5400 14.2896
79.5500 20.6050
79.5600 20.2891
79.5700 21.1815
79.5800 25.9532
79.5900 18.3722
79.6000 14.5484
79.6100 15.9689
79.6200 14.2659
79.6300 19.6295
79.6400 15.2234
79.6500 17.4595
79.6600 18.7391
79.6700 18.8346
79.6800 15.3454
79.6900 12.2082
79.7000 17.6033
79.7100 19.2729
79.7200 16.8687
79.7300 17.1007
79.7400 20.7004
79.7500 19.0430
79.7600 13.6078
79.7700 18.3210
79.7800 12.7328
79.7900 25.2010
79.8000 12.3894
79.8100 14.9721
79.8200 15.3338
79.8300 16.2147
79.8400 24.3033
79.8500 18.6688
79.8600 17.7958
79.8700 18.9403
79.8800 26.8993
79.8900 10.4289
79.9000 11.1062
79.9100 16.8898
79.9200 19.7340
79.9300 22.6413
79.9400 18.1349
79.9500 16.5305
79.9600 22.7656
79.9700 11.2834
79.9800 13.8703
79.9900 16.9687
80.0000 17.0970
80.0100 17.8873
80.0200 10.8280
80.0300 15.4339
80.0400 19.0029
80.0500 19.6215
80.0600 24.6745
80.0700 19.2136
80.0800 17.9559
80.0900 17.7692
80.1000 18.4031
80.1100 15.7625
80.1200 13.7199
80.1300 11.2993
80.1400 19.3834
80.1500 15.5088
80.1600 11.7736
80.1700 13.4798
80.1800 14.8523
80.1900 13.3963
80.2000 11.5614
80.2100 12.8480
80.2200 14.0116
80.2300 13.6436
80.2400 10.0874
80.2500 29.4190
80.2600 13.8252
80.2700 18.9948
80.2800 9.5731
80.2900 20.6535
80.3000 16.2771
80.3100 8.8086
80.3200 14.8849
80.3300 19.0414
80.3400 13.6922
80.3500 20.3430
80.3600 18.2372
80.3700 18.5829
80.3800 24.1836
80.3900 11.0058
80.4000 23.1405
80.4100 13.5457
80.4200 21.7603
80.4300 19.6097
80.4400 8.1955
80.4500 15.9004
80.4600 12.5421
80.4700 20.0404
80.4800 13.4936
80.4900 19.4831
80.5000 15.6896
80.5100 19.1849
80.5200 23.8034
80.5300 17.7775
80.5400 13.0490
80.5500 18.3773
80.5600 17.8846
80.5700 16.1378
80.5800 21.2306
80.5900 13.7606
80.6000 13.7623
80.6100 12.1925
80.6200 11.0138
80.6300 19.3251
80.6400 20.0520
80.6500 19.4131
80.6600 19.2597
80.6700 17.4917
80.6800 17.8231
80.6900 13.4842
80.7000 14.6529
80.7100 17.7240
80.7200 16.5810
80.7300 19.5095
80.7400 17.9745
80.7500 14.6974
80.7600 15.5139
80.7700 11.6487
80.7800 19.7838
80.7900 25.0986
80.8000 20.4736
80.8100 13.9009
80.8200 16.9458
80.8300 15.7330
80.8400 15.7043
80.8500 17.5789
80.8600 10.1397
80.8700 18.2689
80.8800 13.0899
80.8900 16.8687
80.9000 23.1735
80.9100 16.4886
80.9200 12.3840
80.9300 15.1891
80.9400 11.0199
80.9500 18.6517
80.9600 16.5123
80.9700 17.4246
80.9800 17.4363
80.9900 14.1116
81.0000 19.1351
81.0100 16.4559
81.0200 15.1397
81.0300 14.7675
81.0400 20.7269
81.0500 15.6795
81.0600 19.9430
81.0700 24.2926
81.0800 10.4830
81.0900 17.9053
81.1000 18.1760
81.1100 12.8257
81.1200 11.8085
81.1300 15.9872
81.1400 19.7640
81.1500 17.0987
81.1600 18.0910
81.1700 29.5187
81.1800 23.0745
81.1900 30.6539
81.2000 21.6676
81.2100 28.5215
81.2200 18.2721
81.2300 16.4593
81.2400 17.2299
81.2500 15.3023
81.2600 22.6985
81.2700 16.8430
81.2800 22.5915
81.2900 21.6091
81.3000 26.0604
81.3100 34.3819
81.3200 19.3207
81.3300 23.2260
81.3400 18.7257
81.3500 23.6252
81.3600 23.6070
81.3700 19.8021
81.3800 18.2993
81.3900 24.4655
81.4000 16.8558
81.4100 22.4822
81.4200 18.9755
81.4300 19.3790
81.4400 14.6108
81.4500 17.3547
81.4600 14.4825
81.4700 19.4456
81.4800 16.8914
81.4900 14.8265
81.5000 13.9317
81.5100 13.8355
81.5200 25.4282
81.5300 18.8581
81.5400 18.1933
81.5500 17.4128
81.5600 13.9993
81.5700 20.3139
81.5800 15.7097
81.5900 32.1228
81.6000 14.0650
81.6100 21.6864
81.6200 25.7179
81.6300 21.1133
81.6400 17.9295
81.6500 23.1289
81.6600 22.6208
81.6700 21.4390
81.6800 25.9358
81.6900 26.1454
81.7000 35.9774
81.7100 25.1920
81.7200 33.8833
81.7300 35.3307
81.7400 31.9063
81.7500 30.7916
81.7600 30.1747
81.7700 49.1892
81.7800 31.5156
81.7900 23.8959
81.8000 29.0606
81.8100 32.0527
81.8200 40.3115
81.8300 36.8379
81.8400 51.2391
81.8500 36.6463
81.8600 44.8222
81.8700 57.4307
81.8800 56.5839
81.8900 49.5582
81.9000 62.4581
81.9100 45.8485
81.9200 73.4589
81.9300 62.7038
81.9400 76.0384
81.9500 80.4267
81.9600 87.9916
81.9700 75.5513
81.9800 92.2127
81.9900 99.4085
82.0000 103.7092
82.0100 109.6245
82.0200 103.1249
82.0300 125.5856
82.0400 105.4626
82.0500 119.2007
82.0600 128.8292
82.0700 136.8302
82.0800 119.9018
82.0900 117.3130
82.1000 140.5607
82.1100 125.6147
82.1200 104.7525
82.1300 125.1897
82.1400 116.5933
82.1500 103.7723
82.1600 119.0301
82.1700 98.6035
82.1800 97.0629
82.1900 92.6444
82.2000 87.9814
82.2100 85.8575
82.2200 82.9736
82.2300 72.0329
82.2400 67.6440
82.2500 65.3851
82.2600 74.8744
82.2700 65.6631
82.2800 41.3924
82.2900 51.1525
82.3000 38.1224
82.3100 45.1596
82.3200 38.1353
82.3300 31.3505
82.3400 37.8615
82.3500 44.2913
82.3600 31.2815
82.3700 31.2555
82.3800 36.1521
82.3900 22.0188
82.4000 27.7357
82.4100 30.2704
82.4200 38.2890
82.4300 27.4769
82.4400 27.5072
82.4500 29.3473
82.4600 23.6221
82.4700 24.5250
82.4800 20.7167
82.4900 24.5079
82.5000 24.6857
82.5100 16.5738
82.5200 16.8451
82.5300 26.9675
82.5400 18.5596
82.5500 25.9303
82.5600 25.3986
82.5700 19.4495
82.5800 19.5899
82.5900 16.1702
82.6000 19.2445
82.6100 21.3716
82.6200 21.0911
82.6300 24.6402
82.6400 22.9654
82.6500 25.5300
82.6600 17.5933
82.6700 20.7821
82.6800 18.9849
82.6900 15.5585
82.7000 23.7690
82.7100 20.1778
82.7200 18.0014
82.7300 14.9357
82.7400 19.8732
82.7500 17.3186
82.7600 13.6416
82.7700 13.4355
82.7800 18.0500
82.7900 17.0059
82.8000 20.6342
82.8100 15.5516
82.8200 17.2187
82.8300 21.8067
82.8400 13.1878
82.8500 13.2726
82.8600 22.7887
82.8700 19.9788
82.8800 21.2132
82.8900 23.2017
82.9000 22.1588
82.9100 16.0667
82.9200 20.6739
82.9300 18.0512
82.9400 19.9055
82.9500 18.1847
82.9600 22.9919
82.9700 18.5544
82.9800 18.0257
82.9900 18.4176
83.0000 18.5524
83.0100 16.7579
83.0200 16.1686
83.0300 12.6307
83.0400 13.3131
83.0500 20.4443
83.0600 9.9699
83.0700 17.9316
83.0800 17.7714
83.0900 10.7773
83.1000 18.2703
83.1100 23.0382
83.1200 15.9650
83.1300 23.2647
83.1400 13.0453
83.1500 19.8596
83.1600 17.8753
83.1700 27.8645
83.1800 10.2938
83.1900 23.0929
83.2000 19.9018
83.2100 20.6247
83.2200 15.4837
83.2300 22.5602
83.2400 17.1891
83.2500 13.6264
83.2600 9.9067
83.2700 22.6148
83.2800 21.5553
83.2900 18.5325
83.3000 20.3493
83.3100 18.8284
83.3200 16.8710
83.3300 13.1426
83.3400 18.2066
83.3500 22.0062
83.3600 16.7806
83.3700 11.0017
83.3800 21.5143
83.3900 11.8445
83.4000 15.0035
83.4100 17.5629
83.4200 8.3363
83.4300 16.9488
83.4400 19.1807
83.4500 20.5597
83.4600 21.5486
83.4700 18.1297
83.4800 11.7486
83.4900 21.8912
83.5000 19.6967
83.5100 18.3178
83.5200 15.1410
83.5300 13.9129
83.5400 23.5569
83.5500 21.8733
83.5600 17.2332
83.5700 13.5455
83.5800 18.4882
83.5900 15.7465
83.6000 16.4696
83.6100 18.0004
83.6200 15.4459
83.6300 16.0924
83.6400 19.7635
83.6500 18.3406
83.6600 15.4420
83.6700 20.9190
83.6800 15.5329
83.6900 24.6435
83.7000 23.9748
83.7100 29.5565
83.7200 23.0800
83.7300 22.3422
83.7400 12.0818
83.7500 19.9585
83.7600 14.6150
83.7700 15.7956
83.7800 16.5272
83.7900 15.0427
83.8000 16.7553
83.8100 20.3010
83.8200 23.2594
83.8300 20.0848
83.8400 17.9482
83.8500 17.7812
83.8600 19.1239
83.8700 14.3257
83.8800 15.9125
83.8900 14.7552
83.9000 18.5561
83.9100 21.6496
83.9200 20.9125
83.9300 20.0187
83.9400 21.8285
83.9500 17.0934
83.9600 17.0898
83.9700 21.0044
83.9800 16.1317
83.9900 19.9323
84.0000 15.6674
84.0100 17.8686
84.0200 16.9842
84.0300 25.5314
84.0400 16.8766
84.0500 14.0475
84.0600 19.9822
84.0700 17.5896
84.0800 18.2368
84.0900 25.3014
84.1000 19.0164
84.1100 16.2379
84.1200 9.7949
84.1300 9.4648
84.1400 19.5273
84.1500 18.8469
84.1600 17.6641
84.1700 16.6596
84.1800 19.0083
84.1900 25.9447
84.2000 24.0941
84.2100 24.8118
84.2200 12.3797
84.2300 21.4328
84.2400 18.1807
84.2500 30.7400
84.2600 19.6341
84.2700 23.9850
84.2800 17.4636
84.2900 11.0327
84.3000 11.6146
84.3100 15.2035
84.3200 9.6326
84.3300 13.9119
84.3400 23.9704
84.3500 15.4753
84.3600 11.2561
84.3700 21.9909
84.3800 19.5487
84.3900 14.5388
84.4000 18.4662
84.4100 17.7817
84.4200 13.7073
84.4300 20.7620
84.4400 18.3475
84.4500 13.6360
84.4600 16.7601
84.4700 18.6224
84.4800 14.4684
84.4900 17.9366
84.5000 13.4203
84.5100 30.6272
84.5200 14.5501
84.5300 21.5694
84.5400 12.9021
84.5500 20.3150
84.5600 15.9357
84.5700 25.5404
84.5800 19.0662
84.5900 17.4588
84.6000 19.0029
84.6100 17.4448
84.6200 18.2673
84.6300 14.0554
84.6400 19.7472
84.6500 20.2755
84.6600 22.8171
84.6700 21.4005
84.6800 15.9356
84.6900 19.9492
84.7000 17.3777
84.7100 22.2641
84.7200 23.2834
84.7300 15.9060
84.7400 21.9338
84.7500 18.6178
84.7600 14.5110
84.7700 13.0856
84.7800 17.7208
84.7900 19.0780
84.8000 17.5441
84.8100 17.0242
84.8200 17.2607
84.8300 16.5590
84.8400 24.2469
84.8500 19.8510
84.8600 22.9087
84.8700 18.2666
84.8800 17.8633
84.8900 17.3425
84.9000 21.0950
84.9100 18.1101
84.9200 17.7348
84.9300 15.4974
84.9400 22.5727
84.9500 16.4205
84.9600 19.8437
84.9700 11.2597
84.9800 19.7698
84.9900 17.1738
85.0000 17.0445
85.0100 17.5041
85.0200 15.4408
85.0300 13.3973
85.0400 14.6125
85.0500 19.2972
85.0600 19.3055
85.0700 17.8275
85.0800 17.0146
85.0900 20.1199
85.1000 14.8545
85.1100 16.6831
85.1200 20.9830
85.1300 18.4127
85.1400 14.7174
85.1500 10.7722
85.1600 20.4848
85.1700 11.1303
85.1800 20.1580
85.1900 19.5015
85.2000 21.2086
85.2100 18.8511
85.2200 16.0502
85.2300 12.0090
85.2400 16.6055
85.2500 13.5098
85.2600 15.9914
85.2700 18.1397
85.2800 14.8513
85.2900 17.0286
85.3000 8.4739
85.3100 18.6882
85.3200 22.4791
85.3300 20.0401
85.3400 15.7690
85.3500 21.8741
85.3600 15.3263
85.3700 19.1279
85.3800 11.9805
85.3900 15.7187
85.4000 15.5494
85.4100 14.6849
85.4200 15.3143
85.4300 20.4549
85.4400 12.2184
85.4500 12.3846
85.4600 12.3223
85.4700 14.1666
85.4800 12.6798
85.4900 8.1793
85.5000 20.4801
85.5100 14.2035
85.5200 23.9720
85.5300 14.2279
85.5400 15.4371
85.5500 12.8950
85.5600 15.4835
85.5700 22.9882
85.5800 16.4561
85.5900 22.9612
85.6000 10.4890
85.6100 20.6709
85.6200 17.6641
85.6300 22.2362
85.6400 13.2881
85.6500 27.0637
85.6600 17.4161
85.6700 21.8152
85.6800 17.9330
85.6900 14.4120
85.7000 21.3569
85.7100 14.1434
85.7200 19.2389
85.7300 18.2725
85.7400 15.5747
85.7500 20.6996
85.7600 21.7979
85.7700 17.8731
85.7800 17.6070
85.7900 13.1483
85.8000 16.7575
85.8100 22.5579
85.8200 16.2124
85.8300 14.7341
85.8400 12.5491
85.8500 18.3406
85.8600 10.9561
85.8700 18.4854
85.8800 15.3913
85.8900 22.5600
85.9000 19.3394
85.9100 22.8472
85.9200 16.4396
85.9300 20.6261
85.9400 22.6544
85.9500 12.4396
85.9600 11.1736
85.9700 11.2004
85.9800 17.4381
85.9900 14.1581
86.0000 18.5849
86.0100 16.0765
86.0200 20.8268
86.0300 15.9606
86.0400 21.6091
86.0500 19.1110
86.0600 14.4078
86.0700 21.4527
86.0800 14.9136
86.0900 11.6101
86.1000 13.7441
86.1100 18.5895
86.1200 18.1334
86.1300 12.0118
86.1400 22.5880
86.1500 16.2136
86.1600 20.5442
86.1700 16.7089
86.1800 19.8676
86.1900 18.3095
86.2000 13.6771
86.2100 18.1687
86.2200 18.1320
86.2300 19.7387
86.2400 13.0360
86.2500 14.9169
86.2600 21.4750
86.2700 18.1032
86.2800 16.3054
86.2900 13.7227
86.3000 13.6605
86.3100 16.9328
86.3200 21.5911
86.3300 14.0383
86.3400 15.6656
86.3500 15.7397
86.3600 23.6727
86.3700 13.4492
86.3800 11.0468
86.3900 17.6015
86.4000 11.1969
86.4100 14.1642
86.4200 17.1548
86.4300 22.7490
86.4400 11.8094
86.4500 7.3871
86.4600 14.7615
86.4700 22.2532
86.4800 23.1058
86.4900 22.5644
86.5000 22.7550
86.5100 17.8750
86.5200 20.2977
86.5300 18.1534
86.5400 10.4105
86.5500 21.1175
86.5600 14.4729
86.5700 12.7339
86.5800 16.3005
86.5900 24.4971
86.6000 18.2695
86.6100 12.3491
86.6200 22.6799
86.6300 12.7705
86.6400 23.7790
86.6500 12.4283
86.6600 21.3453
86.6700 14.4054
86.6800 18.2426
86.6900 16.4954
86.7000 9.9027
86.7100 13.6232
86.7200 13.7459
86.7300 10.3278
86.7400 17.9644
86.7500 18.2556
86.7600 22.1563
86.7700 20.6768
86.7800 22.2944
86.7900 17.9512
86.8000 24.7846
86.8100 19.2587
86.8200 22.6342
86.8300 13.0435
86.8400 9.8365
86.8500 13.2430
86.8600 15.1266
86.8700 14.4312
86.8800 16.9055
86.8900 25.4429
86.9000 17.1776
86.9100 13.5040
86.9200 16.3686
86.9300 22.9926
86.9400 19.8835
86.9500 23.8533
86.9600 20.4714
86.9700 23.3345
86.9800 17.8065
86.9900 19.2547
87.0000 25.3100
87.0100 19.6704
87.0200 21.7634
87.0300 17.1220
87.0400 22.2759
87.0500 15.0054
87.0600 18.2484
87.0700 22.2143
87.0800 18.2693
87.0900 17.6655
87.1000 11.8286
87.1100 16.7750
87.1200 8.8014
87.1300 24.9587
87.1400 15.0943
87.1500 21.1863
87.1600 12.6091
87.1700 20.8124
87.1800 18.8510
87.1900 18.1824
87.2000 18.9299
87.2100 16.3447
87.2200 18.5795
87.2300 15.0632
87.2400 21.6991
87.2500 12.9192
87.2600 11.4600
87.2700 18.1066
87.2800 27.0527
87.2900 16.7977
87.3000 17.4866
87.3100 21.3541
87.3200 21.7058
87.3300 31.0882
87.3400 26.2460
87.3500 17.5910
87.3600 15.9077
87.3700 19.0302
87.3800 16.4228
87.3900 17.6732
87.4000 12.6526
87.4100 17.5349
87.4200 18.1443
87.4300 18.0655
87.4400 27.5731
87.4500 19.0590
87.4600 18.9458
87.4700 20.0853
87.4800 27.8425
87.4900 18.9631
87.5000 19.9530
87.5100 17.6741
87.5200 23.2761
87.5300 19.1755
87.5400 15.3914
87.5500 15.4662
87.5600 22.2317
87.5700 27.3400
87.5800 20.4421
87.5900 13.7303
87.6000 13.6680
87.6100 13.7724
87.6200 17.3363
87.6300 16.2542
87.6400 21.4786
87.6500 16.0463
87.6600 13.4199
87.6700 13.9866
87.6800 23.7850
87.6900 17.2053
87.7000 16.9702
87.7100 11.6354
87.7200 14.5978
87.7300 24.6828
87.7400 16.5794
87.7500 27.5186
87.7600 15.9135
87.7700 18.6004
87.7800 13.4353
87.7900 19.7267
87.8000 15.5629
87.8100 22.7259
87.8200 16.0825
87.8300 11.5975
87.8400 17.6047
87.8500 13.0471
87.8600 18.6770
87.8700 13.2375
87.8800 14.6507
87.8900 14.1803
87.9000 24.7521
87.9100 17.6051
87.9200 25.8161
87.9300 14.7134
87.9400 19.9309
87.9500 18.3893
87.9600 22.6649
87.9700 20.5385
87.9800 15.6225
87.9900 22.0713
88.0000 18.5278
88.0100 13.5892
88.0200 17.5521
88.0300 18.9144
88.0400 15.7819
88.0500 20.7443
88.0600 19.7301
88.0700 16.2705
88.0800 21.8962
88.0900 16.7030
88.1000 15.0543
88.1100 13.1540
88.1200 16.9369
88.1300 13.6965
88.1400 21.3081
88.1500 16.8055
88.1600 14.7292
88.1700 15.5688
88.1800 21.6227
88.1900 14.2336
88.2000 23.4113
88.2100 19.3537
88.2200 20.0444
88.2300 23.8951
88.2400 15.9281
88.2500 17.9907
88.2600 13.2599
88.2700 22.2446
88.2800 17.0040
88.2900 22.5291
88.3000 22.2852
88.3100 23.9288
88.3200 16.3451
88.3300 17.8851
88.3400 13.5775
88.3500 11.1032
88.3600 18.3435
88.3700 21.3748
88.3800 17.6693
88.3900 19.5966
88.4000 18.3521
88.4100 19.1587
88.4200 24.2394
88.4300 27.1720
88.4400 11.0989
88.4500 19.5567
88.4600 11.3178
88.4700 19.8785
88.4800 12.8833
88.4900 16.9470
88.5000 19.4223
88.5100 19.5909
88.5200 18.3092
88.5300 14.8901
88.5400 22.8060
88.5500 16.5587
88.5600 14.1433
88.5700 16.0940
88.5800 23.6967
88.5900 23.3284
88.6000 22.4444
88.6100 16.7386
88.6200 19.0782
88.6300 21.7935
88.6400 23.8235
88.6500 14.6490
88.6600 16.2458
88.6700 17.8180
88.6800 24.7100
88.6900 13.2697
88.7000 16.0662
88.7100 11.6057
88.7200 15.0771
88.7300 12.5668
88.7400 17.3329
88.7500 14.8620
88.7600 22.1406
88.7700 17.3749
88.7800 15.8515
88.7900 18.4688
88.8000 19.6806
88.8100 21.6368
88.8200 12.5878
88.8300 14.0446
88.8400 16.8982
88.8500 16.5188
88.8600 16.6378
88.8700 23.6916
88.8800 19.4281
88.8900 22.8228
88.9000 24.2021
88.9100 26.8424
88.9200 14.6315
88.9300 18.7926
88.9400 13.0308
88.9500 13.6769
88.9600 23.3063
88.9700 22.9103
88.9800 19.8152
88.9900 14.5409
89.0000 20.5533
89.0100 14.3308
89.0200 22.7412
89.0300 17.6736
89.0400 18.6059
89.0500 16.0187
89.0600 15.7058
89.0700 13.3260
89.0800 15.6498
89.0900 19.1418
89.1000 14.9634
89.1100 19.7569
89.1200 15.7492
89.1300 12.3000
89.1400 17.4770
89.1500 18.9341
89.1600 15.2133
89.1700 23.8216
89.1800 16.9517
89.1900 15.5008
89.2000 17.6433
89.2100 25.2141
89.2200 14.3164
89.2300 19.9165
89.2400 15.7351
89.2500 16.4613
89.2600 13.3756
89.2700 19.9532
89.2800 17.5147
89.2900 18.7339
89.3000 17.5409
89.3100 17.1834
89.3200 20.2869
89.3300 22.6703
89.3400 21.8362
89.3500 24.6034
89.3600 15.6893
89.3700 21.5716
89.3800 18.0893
89.3900 18.3159
89.4000 14.3024
89.4100 20.9460
89.4200 16.2235
89.4300 21.4441
89.4400 22.9858
89.4500 21.8736
89.4600 18.7336
89.4700 22.9037
89.4800 20.7175
89.4900 16.4137
89.5000 14.1404
89.5100 18.4946
89.5200 21.6645
89.5300 26.8010
89.5400 21.2930
89.5500 22.7699
89.5600 13.9178
89.5700 13.7051
89.5800 19.1492
89.5900 24.1864
89.6000 23.1493
89.6100 15.8318
89.6200 21.4633
89.6300 16.0260
89.6400 26.7102
89.6500 17.4281
89.6600 16.2489
89.6700 25.4566
89.6800 22.4677
89.6900 32.5858
89.7000 17.8410
89.7100 20.9626
89.7200 20.8019
89.7300 15.9937
89.7400 16.5334
89.7500 15.8168
89.7600 20.5957
89.7700 16.2401
89.7800 14.7346
89.7900 17.3941
89.8000 15.1965
89.8100 19.6253
89.8200 19.1097
89.8300 23.0313
89.8400 25.2434
89.8500 16.1446
89.8600 24.4836
89.8700 13.8602
89.8800 22.7089
89.8900 20.0729
89.9000 15.5428
89.9100 22.4116
89.9200 12.0117
89.9300 24.4856
89.9400 22.1128
89.9500 27.6369
89.9600 9.3200
89.9700 27.0869
89.9800 17.0535
89.9900 25.4575
90.0000 19.9442
90.0100 18.3893
90.0200 19.2184
90.0300 14.4500
90.0400 17.1688
90.0500 15.3394
90.0600 17.0044
90.0700 14.0433
90.0800 19.5270
90.0900 15.6499
90.1000 19.5275
90.1100 22.0624
90.1200 19.6895
90.1300 16.7936
90.1400 15.5704
90.1500 19.4472
90.1600 17.5789
90.1700 21.2126
90.1800 17.4154
90.1900 12.4919
90.2000 17.2666
90.2100 20.7877
90.2200 19.3484
90.2300 17.2949
90.2400 22.1454
90.2500 23.1591
90.2600 14.8485
90.2700 15.9723
90.2800 21.2304
90.2900 18.6336
90.3000 21.9500
90.3100 10.6200
90.3200 13.3440
90.3300 17.5682
90.3400 15.8657
90.3500 20.9868
90.3600 18.9648
90.3700 16.7202
90.3800 15.7547
90.3900 16.5472
90.4000 13.5268
90.4100 15.8513
90.4200 14.9409
90.4300 12.0431
90.4400 16.3224
90.4500 10.6100
90.4600 17.5585
90.4700 15.8872
90.4800 23.7342
90.4900 18.4887
90.5000 21.7943
90.5100 18.7544
90.5200 21.1231
90.5300 19.4817
90.5400 12.0211
90.5500 22.0699
90.5600 15.9614
90.5700 15.9569
90.5800 11.3971
90.5900 10.5994
90.6000 15.2371
90.6100 23.0219
90.6200 23.6275
90.6300 15.7616
90.6400 21.0130
90.6500 19.3922
90.6600 18.7662
90.6700 15.8980
90.6800 14.8337
90.6900 11.7860
90.7000 24.8229
90.7100 17.6290
90.7200 17.0436
90.7300 16.8941
90.7400 18.6050
90.7500 9.8828
90.7600 17.5506
90.7700 12.4838
90.7800 10.9637
90.7900 20.7865
90.8000 13.9126
90.8100 18.0628
90.8200 9.7259
90.8300 18.8131
90.8400 12.1091
90.8500 17.9761
90.8600 16.8471
90.8700 18.2866
90.8800 17.8576
90.8900 14.2718
90.9000 24.6470
90.9100 14.4635
90.9200 17.0401
90.9300 13.6793
90.9400 17.6752
90.9500 11.7812
90.9600 16.4004
90.9700 14.6550
90.9800 18.1553
90.9900 16.7951
91.0000 10.4178
91.0100 27.0534
91.0200 9.4688
91.0300 13.2930
91.0400 16.1922
91.0500 12.4323
91.0600 15.5128
91.0700 23.2427
91.0800 24.0244
91.0900 8.8578
91.1000 16.7308
91.1100 17.7173
91.1200 21.1338
91.1300 24.3725
91.1400 17.5074
91.1500 13.3495
91.1600 15.8830
91.1700 13.6190
91.1800 15.6094
91.1900 13.3892
91.2000 15.8932
91.2100 13.7556
91.2200 13.5285
91.2300 21.0733
91.2400 13.5865
91.2500 15.6110
91.2600 18.7318
91.2700 11.7900
91.2800 7.9059
91.2900 17.2706
91.3000 17.6467
91.3100 17.9300
91.3200 9.1987
91.3300 27.2755
91.3400 12.3325
91.3500 15.4897
91.3600 12.5895
91.3700 14.6213
91.3800 16.9783
91.3900 15.9017
91.4000 15.9860
91.4100 15.4329
91.4200 17.7680
91.4300 18.8192
91.4400 21.2750
91.4500 20.3603
91.4600 19.0105
91.4700 16.2195
91.4800 15.5707
91.4900 19.3588
91.5000 11.6535
91.5100 13.9406
91.5200 17.9244
91.5300 15.1840
91.5400 17.9428
91.5500 19.4605
91.5600 15.9523
91.5700 16.6582
91.5800 14.3026
91.5900 20.5822
91.6000 22.2984
91.6100 21.5142
91.6200 15.7760
91.6300 17.7602
91.6400 21.4547
91.6500 14.7313
91.6600 18.2908
91.6700 14.0757
91.6800 17.5279
91.6900 13.7540
91.7000 17.7897
91.7100 16.4666
91.7200 10.4899
91.7300 15.3374
91.7400 17.7182
91.7500 15.8675
91.7600 21.3979
91.7700 15.0640
91.7800 19.1632
91.7900 21.1495
91.8000 18.2476
91.8100 23.0774
91.8200 16.9333
91.8300 11.8322
91.8400 13.7247
91.8500 13.7989
91.8600 18.4253
91.8700 10.6486
91.8800 25.8708
91.8900 15.3512
91.9000 17.2535
91.9100 21.0964
91.9200 12.7114
91.9300 12.5557
91.9400 9.0477
91.9500 15.4776
91.9600 17.3493
91.9700 18.1567
91.9800 22.2812
91.9900 14.2006
92.0000 21.3193
92.0100 20.5801
92.0200 21.3487
92.0300 15.7669
92.0400 13.0987
92.0500 12.1230
92.0600 18.5039
92.0700 19.9671
92.0800 19.4441
92.0900 16.6214
92.1000 19.9839
92.1100 16.1552
92.1200 11.1881
92.1300 15.6275
92.1400 19.6736
92.1500 19.2608
92.1600 21.7471
92.1700 14.8409
92.1800 16.4127
92.1900 17.4695
92.2000 10.0013
92.2100 19.5778
92.2200 20.5693
92.2300 21.0187
92.2400 21.9367
92.2500 19.0549
92.2600 18.1879
92.2700 15.4886
92.2800 19.6936
92.2900 16.8926
92.3000 22.1094
92.3100 11.7065
92.3200 13.8314
92.3300 19.8854
92.3400 17.8127
92.3500 23.9698
92.3600 29.2214
92.3700 17.1540
92.3800 17.9677
92.3900 18.4335
92.4000 23.5874
92.4100 9.3015
92.4200 19.4871
92.4300 21.0307
92.4400 16.5119
92.4500 22.9433
92.4600 13.7824
92.4700 19.9227
92.4800 17.1303
92.4900 13.3963
92.5000 19.1635
92.5100 18.2938
92.5200 25.1172
92.5300 13.4307
92.5400 11.0230
92.5500 23.3595
92.5600 21.5951
92.5700 18.2372
92.5800 14.1026
92.5900 19.5100
92.6000 15.2356
92.6100 16.5835
92.6200 12.2786
92.6300 12.8501
92.6400 19.7825
92.6500 20.9724
92.6600 19.2490
92.6700 21.7575
92.6800 19.4888
92.6900 22.5023
92.7000 22.7787
92.7100 15.7751
92.7200 19.5278
92.7300 15.1175
92.7400 19.5278
92.7500 16.4543
92.7600 18.5840
92.7700 24.5369
92.7800 18.4981
92.7900 19.3258
92.8000 20.8081
92.8100 26.5240
92.8200 14.5835
92.8300 14.8488
92.8400 14.8562
92.8500 22.5876
92.8600 10.9925
92.8700 17.8527
92.8800 16.8118
92.8900 14.3446
92.9000 13.5765
92.9100 15.6238
92.9200 12.8335
92.9300 17.3238
92.9400 18.0211
92.9500 19.4812
92.9600 25.6445
92.9700 24.0679
92.9800 14.6363
92.9900 16.5473
93.0000 12.6121
93.0100 19.0998
93.0200 23.2645
93.0300 9.4453
93.0400 19.4695
93.0500 11.7081
93.0600 13.1398
93.0700 14.0511
93.0800 19.1302
93.0900 18.4839
93.1000 19.1651
93.1100 13.9300
93.1200 14.8473
93.1300 13.3207
93.1400 9.7829
93.1500 19.7135
93.1600 13.0130
93.1700 15.3605
93.1800 17.2819
93.1900 16.2205
93.2000 14.6065
93.2100 13.8818
93.2200 14.4129
93.2300 16.8287
93.2400 18.5446
93.2500 16.9071
93.2600 18.0516
93.2700 12.7700
93.2800 15.8390
93.2900 17.2951
93.3000 16.9201
93.3100 18.1553
93.3200 18.2832
93.3300 21.1755
93.3400 21.1051
93.3500 16.1283
93.3600 16.7259
93.3700 23.0259
93.3800 19.7942
93.3900 16.5565
93.4000 15.5398
93.4100 18.4003
93.4200 12.5984
93.4300 13.5075
93.4400 23.5451
93.4500 20.4189
93.4600 22.0587
93.4700 19.5596
93.4800 18.5895
93.4900 20.1778
93.5000 16.0258
93.5100 14.7238
93.5200 18.2096
93.5300 14.5247
93.5400 15.4023
93.5500 12.8111
93.5600 16.1268
93.5700 19.1580
93.5800 12.6647
93.5900 16.0802
93.6000 20.6268
93.6100 16.0094
93.6200 18.5784
93.6300 14.3292
93.6400 21.9724
93.6500 17.1456
93.6600 12.8849
93.6700 16.0350
93.6800 14.8938
93.6900 18.7496
93.7000 15.6381
93.7100 13.1479
93.7200 17.5929
93.7300 26.2883
93.7400 24.7016
93.7500 28.1983
93.7600 18.0795
93.7700 20.5762
93.7800 15.8672
93.7900 26.2550
93.8000 16.7715
93.8100 14.0936
93.8200 17.5446
93.8300 18.7069
93.8400 19.0828
93.8500 17.4239
93.8600 20.3292
93.8700 13.9319
93.8800 18.9957
93.8900 11.5107
93.9000 19.8498
93.9100 19.9072
93.9200 13.0910
93.9300 19.1194
93.9400 18.5252
93.9500 17.1961
93.9600 15.2414
93.9700 11.7299
93.9800 20.6577
93.9900 18.5573
94.0000 16.2251
94.0100 13.5520
94.0200 15.2943
94.0300 19.7212
94.0400 13.2082
94.0500 14.7986
94.0600 12.2508
94.0700 17.8812
94.0800 19.7966
94.0900 16.2204
94.1000 16.0387
94.1100 27.3871
94.1200 16.3120
94.1300 19.0032
94.1400 18.1837
94.1500 14.7426
94.1600 17.1179
94.1700 31.4216
94.1800 18.8388
94.1900 16.6610
94.2000 18.0537
94.2100 21.9201
94.2200 21.9335
94.2300 19.2600
94.2400 20.2718
94.2500 23.0589
94.2600 19.7501
94.2700 24.5777
94.2800 19.5832
94.2900 21.6383
94.3000 16.0072
94.3100 17.5290
94.3200 19.1180
94.3300 12.1301
94.3400 15.8114
94.3500 19.7588
94.3600 20.8665
94.3700 18.1611
94.3800 15.6146
94.3900 18.4550
94.4000 17.6088
94.4100 10.0761
94.4200 9.2868
94.4300 13.8963
94.4400 15.6365
94.4500 20.0204
94.4600 14.2702
94.4700 16.7490
94.4800 15.5382
94.4900 16.2434
94.5000 14.4344
94.5100 18.6579
94.5200 19.0654
94.5300 12.7156
94.5400 20.3381
94.5500 12.3294
94.5600 14.4368
94.5700 15.7526
94.5800 20.7342
94.5900 14.7125
94.6000 23.6319
94.6100 19.2083
94.6200 17.5058
94.6300 17.6542
94.6400 11.0845
94.6500 16.4466
94.6600 18.5904
94.6700 21.1900
94.6800 13.6805
94.6900 16.4868
94.7000 8.7660
94.7100 15.4595
94.7200 15.4678
94.7300 25.7512
94.7400 16.6203
94.7500 17.2455
94.7600 9.4186
94.7700 17.6268
94.7800 15.0359
94.7900 12.0524
94.8000 14.5347
94.8100 14.7008
94.8200 15.3157
94.8300 20.0510
94.8400 20.4279
94.8500 16.3992
94.8600 13.5292
94.8700 15.2831
94.8800 20.6976
94.8900 13.8101
94.9000 14.7453
94.9100 16.5559
94.9200 13.5877
94.9300 16.3098
94.9400 20.1876
94.9500 22.9509
94.9600 23.8679
94.9700 17.6500
94.9800 19.1716
94.9900 22.6079
95.0000 16.7303
95.0100 17.9561
95.0200 18.2053
95.0300 18.2479
95.0400 18.4316
95.0500 17.4660
95.0600 20.3016
95.0700 15.0343
95.0800 17.9171
95.0900 14.6650
95.1000 21.8964
95.1100 19.3839
95.1200 24.1688
95.1300 19.2615
95.1400 13.7879
95.1500 16.4199
95.1600 15.7244
95.1700 16.8251
95.1800 22.9951
95.1900 15.7904
95.2000 18.7429
95.2100 12.5632
95.2200 15.9191
95.2300 16.1749
95.2400 15.7046
95.2500 14.5895
95.2600 14.8921
95.2700 17.7137
95.2800 21.6642
95.2900 17.9932
95.3000 17.0170
95.3100 14.7058
95.3200 16.8144
95.3300 16.7081
95.3400 20.1405
95.3500 22.4004
95.3600 18.0134
95.3700 16.5910
95.3800 20.4160
95.3900 21.0141
95.4000 18.9435
95.4100 24.9338
95.4200 22.7266
95.4300 14.7775
95.4400 24.9554
95.4500 20.7986
95.4600 14.8171
95.4700 17.2784
95.4800 16.5226
95.4900 21.4772
95.5000 13.5900
95.5100 15.2149
95.5200 17.1417
95.5300 10.7530
95.5400 11.3636
95.5500 25.7791
95.5600 18.1726
95.5700 20.0632
95.5800 18.1215
95.5900 26.7094
95.6000 18.1993
95.6100 17.1143
95.6200 17.1018
95.6300 17.4527
95.6400 19.1373
95.6500 13.5112
95.6600 25.9795
95.6700 23.6090
95.6800 20.7200
95.6900 22.8045
95.7000 21.0350
95.7100 24.8956
95.7200 25.0115
95.7300 18.7022
95.7400 20.3211
95.7500 11.4941
95.7600 20.5910
95.7700 11.9700
95.7800 18.7367
95.7900 14.8376
95.8000 17.4462
95.8100 14.0390
95.8200 15.7449
95.8300 16.3450
95.8400 14.2261
95.8500 11.5477
95.8600 13.2528
95.8700 15.5874
95.8800 13.8323
95.8900 15.6181
95.9000 15.8685
95.9100 14.7491
95.9200 17.9265
95.9300 20.6490
95.9400 13.3948
95.9500 17.7774
95.9600 16.7434
95.9700 15.0953
95.9800 9.3922
95.9900 16.5592
96.0000 18.9239
96.0100 17.8739
96.0200 20.6281
96.0300 10.7786
96.0400 14.4443
96.0500 24.5513
96.0600 15.5642
96.0700 16.5711
96.0800 19.9111
96.0900 19.3826
96.1000 17.2992
96.1100 20.1379
96.1200 18.0863
96.1300 20.2109
96.1400 17.7967
96.1500 17.1273
96.1600 12.2509
96.1700 15.8683
96.1800 15.5089
96.1900 10.1478
96.2000 15.5351
96.2100 17.9273
96.2200 18.1051
96.2300 20.1962
96.2400 15.3398
96.2500 18.8691
96.2600 17.7393
96.2700 12.8150
96.2800 18.3695
96.2900 11.0621
96.3000 19.6864
96.3100 17.8998
96.3200 21.1582
96.3300 12.3806
96.3400 14.1592
96.3500 7.9614
96.3600 12.0486
96.3700 19.3557
96.3800 13.5123
96.3900 15.4916
96.4000 19.0829
96.4100 15.7577
96.4200 16.4277
96.4300 15.3871
96.4400 16.4893
96.4500 19.4635
96.4600 17.6056
96.4700 18.8059
96.4800 13.6139
96.4900 24.3989
96.5000 12.9002
96.5100 18.9509
96.5200 19.0875
96.5300 21.0541
96.5400 12.8246
96.5500 18.5341
96.5600 17.5312
96.5700 17.0335
96.5800 22.4919
96.5900 21.3305
96.6000 19.4238
96.6100 17.1280
96.6200 17.0053
96.6300 21.6645
96.6400 13.3057
96.6500 16.4553
96.6600 18.3416
96.6700 18.4092
96.6800 15.9037
96.6900 15.7473
96.7000 18.6333
96.7100 20.4715
96.7200 10.8782
96.7300 20.4670
96.7400 9.1998
96.7500 15.4044
96.7600 10.8789
96.7700 19.3490
96.7800 18.3997
96.7900 21.5863
96.8000 16.4067
96.8100 14.8887
96.8200 15.4749
96.8300 19.5192
96.8400 21.5946
96.8500 14.5327
96.8600 14.1541
96.8700 21.1013
96.8800 16.2802
96.8900 20.9293
96.9000 22.7795
96.9100 25.0956
96.9200 26.1993
96.9300 21.3153
96.9400 15.7749
96.9500 11.8963
96.9600 10.5667
96.9700 15.9577
96.9800 19.3425
96.9900 10.7990
97.0000 17.7247
97.0100 14.0099
97.0200 24.7828
97.0300 14.7401
97.0400 16.3895
97.0500 14.4596
97.0600 21.5310
97.0700 18.6182
97.0800 14.8585
97.0900 15.8398
97.1000 22.9498
97.1100 19.8514
97.1200 12.3313
97.1300 19.2147
97.1400 17.1686
97.1500 18.3272
97.1600 14.6275
97.1700 18.9429
97.1800 16.2529
97.1900 21.3053
97.2000 17.9672
97.2100 22.8584
97.2200 12.8904
97.2300 17.8124
97.2400 16.7507
97.2500 14.1663
97.2600 10.6991
97.2700 16.5100
97.2800 14.7332
97.2900 16.3455
97.3000 15.4365
97.3100 13.5433
97.3200 13.2441
97.3300 10.8577
97.3400 21.4498
97.3500 15.7022
97.3600 22.0386
97.3700 14.7728
97.3800 14.0394
97.3900 20.1299
97.4000 13.2016
97.4100 8.7008
97.4200 8.3237
97.4300 9.8973
97.4400 17.0577
97.4500 14.6126
97.4600 18.8248
97.4700 14.3336
97.4800 14.5034
97.4900 19.9817
97.5000 21.7353
97.5100 16.1511
97.5200 15.4896
97.5300 18.1980
97.5400 16.7434
97.5500 16.6403
97.5600 11.7924
97.5700 11.3277
97.5800 15.6345
97.5900 17.5946
97.6000 15.9221
97.6100 18.8580
97.6200 27.3173
97.6300 15.6512
97.6400 18.8826
97.6500 17.0832
97.6600 10.6717
97.6700 13.5035
97.6800 14.5761
97.6900 23.1740
97.7000 14.7564
97.7100 21.2161
97.7200 12.7857
97.7300 16.6183
97.7400 14.6367
97.7500 22.9637
97.7600 13.8296
97.7700 17.2429
97.7800 17.0888
97.7900 15.8057
97.8000 9.3655
97.8100 20.3339
97.8200 23.2658
97.8300 12.4215
97.8400 9.9454
97.8500 12.9146
97.8600 10.6755
97.8700 16.8275
97.8800 21.5390
97.8900 15.7247
97.9000 19.5138
97.9100 22.3475
97.9200 18.5770
97.9300 16.8237
97.9400 19.1474
97.9500 14.6824
97.9600 20.4009
97.9700 23.7106
97.9800 19.3065
97.9900 15.3579
98.0000 17.9376
98.0100 21.1813
98.0200 24.7902
98.0300 24.6294
98.0400 12.5111
98.0500 18.6491
98.0600 17.0672
98.0700 21.1305
98.0800 15.9195
98.0900 24.8745
98.1000 21.3169
98.1100 23.8834
98.1200 21.2316
98.1300 14.0662
98.1400 21.3635
98.1500 19.2353
98.1600 19.2778
98.1700 18.6880
98.1800 17.5359
98.1900 24.3846
98.2000 21.9517
98.2100 18.8586
98.2200 21.9629
98.2300 28.0212
98.2400 20.0714
98.2500 17.0624
98.2600 15.1181
98.2700 18.8069
98.2800 17.9724
98.2900 32.2940
98.3000 26.3202
98.3100 18.7041
98.3200 38.1853
98.3300 25.3666
98.3400 30.8091
98.3500 27.8355
98.3600 25.1041
98.3700 22.4166
98.3800 33.1991
98.3900 28.2019
98.4000 32.2357
98.4100 33.1483
98.4200 32.1220
98.4300 30.4693
98.4400 31.1427
98.4500 30.4860
98.4600 36.6341
98.4700 37.2323
98.4800 39.5536
98.4900 36.0945
98.5000 35.4596
98.5100 40.6268
98.5200 50.6138
98.5300 37.5638
98.5400 49.4713
98.5500 47.4788
98.5600 55.6063
98.5700 49.1688
98.5800 39.2859
98.5900 41.1977
98.6000 47.7691
98.6100 52.1600
98.6200 50.9104
98.6300 34.2692
98.6400 48.7410
98.6500 48.2457
98.6600 54.2670
98.6700 41.9820
98.6800 43.2285
98.6900 40.7257
98.7000 45.7473
98.7100 45.3682
98.7200 47.1031
98.7300 35.3473
98.7400 41.3912
98.7500 37.1530
98.7600 35.8439
98.7700 34.4936
98.7800 45.6389
98.7900 41.9420
98.8000 33.9404
98.8100 31.0503
98.8200 35.0938
98.8300 35.2492
98.8400 32.7533
98.8500 25.4186
98.8600 34.2886
98.8700 30.2457
98.8800 18.7390
98.8900 25.3448
98.9000 21.4237
98.9100 15.4329
98.9200 24.4222
98.9300 22.1597
98.9400 19.8730
98.9500 34.2095
98.9600 21.7441
98.9700 18.6308
98.9800 15.3166
98.9900 22.6746
99.0000 21.3517
99.0100 28.9577
99.0200 16.7989
99.0300 26.9209
99.0400 20.0010
99.0500 20.8909
99.0600 28.0041
99.0700 18.9378
99.0800 22.1252
99.0900 21.1747
99.1000 22.1464
99.1100 23.4808
99.1200 25.5811
99.1300 15.8232
99.1400 22.0417
99.1500 18.9848
99.1600 22.2718
99.1700 15.1203
99.1800 21.0552
99.1900 19.0458
99.2000 19.9035
99.2100 14.7028
99.2200 12.8150
99.2300 18.8671
99.2400 21.1225
99.2500 18.3451
99.2600 17.1023
99.2700 11.5033
99.2800 8.3748
99.2900 22.7575
99.3000 23.6617
99.3100 21.9168
99.3200 15.5018
99.3300 13.8854
99.3400 13.2594
99.3500 15.3046
99.3600 17.4200
99.3700 25.1480
99.3800 15.2746
99.3900 25.4159
99.4000 17.5676
99.4100 25.3451
99.4200 16.5759
99.4300 16.4190
99.4400 14.6344
99.4500 18.8158
99.4600 19.6698
99.4700 15.3364
99.4800 18.9232
99.4900 23.6844
99.5000 10.5992
99.5100 18.7996
99.5200 8.7082
99.5300 20.0201
99.5400 14.0440
99.5500 10.9994
99.5600 14.0216
99.5700 17.1004
99.5800 15.2151
99.5900 12.2639
99.6000 22.8265
99.6100 17.6776
99.6200 18.2619
99.6300 22.9240
99.6400 13.2860
99.6500 21.6865
99.6600 21.0862
99.6700 16.7059
99.6800 15.2032
99.6900 10.5745
99.7000 20.7349
99.7100 23.1522
99.7200 22.6960
99.7300 22.6033
99.7400 17.2541
99.7500 15.3339
99.7600 21.8078
99.7700 12.3492
99.7800 13.6255
99.7900 15.3964
99.8000 4.6962
99.8100 21.8318
99.8200 12.7225
99.8300 20.2476
99.8400 17.5218
99.8500 13.3738
99.8600 19.4867
99.8700 15.8078
99.8800 16.3240
99.8900 18.3359
99.9000 19.7963
99.9100 5.3703
99.9200 10.5510
99.9300 18.5696
99.9400 11.6455
99.9500 13.1677
99.9600 16.7142
99.9700 16.9541
99.9800 22.0161
99.9900 17.7803
100.0000 21.0827
100.0100 15.2964
100.0200 20.2163
100.0300 14.2254
100.0400 15.1883
100.0500 17.9534
100.0600 16.4010
100.0700 15.9341
100.0800 16.6547
100.0900 14.2811
100.1000 13.8708
100.1100 24.0234
100.1200 23.4211
100.1300 24.9882
100.1400 8.6813
100.1500 23.8642
100.1600 11.4802
100.1700 22.5115
100.1800 22.0065
100.1900 15.8430
100.2000 12.7662
100.2100 17.8568
100.2200 8.5610
100.2300 18.2801
100.2400 14.1757
100.2500 16.2173
100.2600 14.6458
100.2700 20.1717
100.2800 18.8387
100.2900 23.2726
100.3000 13.8032
100.3100 14.1360
100.3200 12.9926
100.3300 15.5284
100.3400 16.6066
100.3500 16.3774
100.3600 14.8879
100.3700 20.5962
100.3800 16.0020
100.3900 16.1775
100.4000 23.3024
100.4100 20.8593
100.4200 20.3835
100.4300 21.4498
100.4400 20.9807
100.4500 15.8317
100.4600 15.4972
100.4700 9.4485
100.4800 18.6096
100.4900 16.6721
100.5000 14.6392
100.5100 15.1139
100.5200 18.9362
100.5300 13.9159
100.5400 16.9125
100.5500 27.6830
100.5600 15.2279
100.5700 20.7915
100.5800 11.6487
100.5900 17.8408
100.6000 19.7787
100.6100 17.7329
100.6200 12.7516
100.6300 29.7571
100.6400 15.5019
100.6500 15.7625
100.6600 23.5064
100.6700 20.8205
100.6800 16.3469
100.6900 15.2022
100.7000 15.1649
100.7100 19.2296
100.7200 22.7273
100.7300 12.6123
100.7400 20.3294
100.7500 18.2084
100.7600 16.7894
100.7700 23.5109
100.7800 17.1710
100.7900 14.2137
100.8000 21.0644
100.8100 20.0527
100.8200 22.1111
100.8300 13.5334
100.8400 12.6038
100.8500 12.6040
100.8600 17.7209
100.8700 9.8544
100.8800 14.0702
100.8900 17.4282
100.9000 23.0970
100.9100 15.4402
100.9200 12.0443
100.9300 13.4436
100.9400 16.5415
100.9500 10.7901
100.9600 16.1643
100.9700 18.7655
100.9800 17.5617
100.9900 19.9416
101.0000 17.8355
101.0100 16.8682
101.0200 8.9729
101.0300 17.8784
101.0400 18.3252
101.0500 13.9916
101.0600 12.4759
101.0700 12.0801
101.0800 15.7631
101.0900 12.9301
101.1000 20.1792
101.1100 12.4534
101.1200 14.5128
101.1300 15.6853
101.1400 18.5401
101.1500 10.5431
101.1600 10.5831
101.1700 10.6596
101.1800 12.4694
101.1900 17.5023
101.2000 14.6053
101.2100 17.2124
101.2200 15.6286
101.2300 18.0858
101.2400 14.3602
101.2500 24.0931
101.2600 24.7239
101.2700 14.8555
101.2800 20.8825
101.2900 18.9573
101.3000 18.7490
101.3100 18.5568
101.3200 20.4869
101.3300 15.2369
101.3400 24.0128
101.3500 20.1200
101.3600 26.1821
101.3700 14.8048
101.3800 25.0039
101.3900 18.6876
101.4000 21.5851
101.4100 22.0246
101.4200 18.3592
101.4300 17.5072
101.4400 24.9776
101.4500 20.0300
101.4600 10.2970
101.4700 11.3144
101.4800 12.2107
101.4900 15.1179
101.5000 22.4290
101.5100 18.1910
101.5200 22.3208
101.5300 15.2537
101.5400 14.7859
101.5500 18.0353
101.5600 18.8114
101.5700 11.1304
101.5800 14.9298
101.5900 16.2400
101.6000 10.0326
101.6100 11.3408
101.6200 21.4012
101.6300 17.3450
101.6400 20.5199
101.6500 23.4414
101.6600 22.8100
101.6700 15.4273
101.6800 19.2572
101.6900 18.6223
101.7000 19.2599
101.7100 11.6544
101.7200 15.8592
101.7300 15.6763
101.7400 19.3041
101.7500 18.5404
101.7600 17.9289
101.7700 15.8408
101.7800 17.2392
101.7900 15.3463
101.8000 16.6433
101.8100 21.5548
101.8200 24.2928
101.8300 15.6412
101.8400 26.1422
101.8500 18.2352
101.8600 12.1941
101.8700 11.9278
101.8800 21.0277
101.8900 18.2366
101.9000 14.1646
101.9100 17.6514
101.9200 18.3512
101.9300 12.3686
101.9400 22.8327
101.9500 18.5185
101.9600 19.4371
101.9700 23.6069
101.9800 17.6391
101.9900 14.0470
102.0000 18.8408
102.0100 23.6377
102.0200 16.0708
102.0300 21.8843
102.0400 21.8519
102.0500 17.3219
102.0600 23.1278
102.0700 17.8949
102.0800 22.9563
102.0900 15.9157
102.1000 18.8136
102.1100 17.3977
102.1200 17.3216
102.1300 15.0530
102.1400 15.2842
102.1500 18.7570
102.1600 11.5562
102.1700 20.6724
102.1800 14.5238
102.1900 28.2463
102.2000 15.3315
102.2100 19.0804
102.2200 12.2578
102.2300 19.3976
102.2400 15.7779
102.2500 12.9479
102.2600 15.3771
102.2700 15.7116
102.2800 21.1224
102.2900 15.5870
102.3000 23.7279
102.3100 26.9182
102.3200 12.6125
102.3300 19.9904
102.3400 23.9510
102.3500 17.6263
102.3600 15.5251
102.3700 10.5690
102.3800 12.6088
102.3900 17.1441
102.4000 19.6888
102.4100 19.5507
102.4200 15.4434
102.4300 21.0810
102.4400 14.6329
102.4500 18.0724
102.4600 14.8396
102.4700 11.2592
102.4800 18.0874
102.4900 22.6787
102.5000 10.9523
102.5100 25.2157
102.5200 19.5119
102.5300 18.8713
102.5400 16.9902
102.5500 18.5558
102.5600 11.9573
102.5700 15.7976
102.5800 17.6493
102.5900 23.1903
102.6000 20.6655
102.6100 21.7838
102.6200 13.5271
102.6300 16.2016
102.6400 17.2709
102.6500 20.5859
102.6600 11.8589
102.6700 14.9189
102.6800 18.4498
102.6900 27.0692
102.7000 15.4311
102.7100 14.0986
102.7200 18.4840
102.7300 17.8713
102.7400 11.9527
102.7500 13.5647
102.7600 14.3528
102.7700 20.6562
102.7800 16.8322
102.7900 20.7158
102.8000 20.3042
102.8100 17.1285
102.8200 16.2546
102.8300 13.8094
102.8400 16.0116
102.8500 16.0403
102.8600 20.2320
102.8700 18.3082
102.8800 17.6189
102.8900 20.2817
102.9000 17.9193
102.9100 15.6103
102.9200 8.8655
102.9300 13.9051
102.9400 11.5950
102.9500 11.7124
102.9600 19.6500
102.9700 13.4057
102.9800 20.2399
102.9900 21.7381
103.0000 17.2413
103.0100 17.5955
103.0200 21.1319
103.0300 15.1776
103.0400 12.3960
103.0500 17.5867
103.0600 15.1031
103.0700 20.2106
103.0800 13.2823
103.0900 19.6507
103.1000 17.5202
103.1100 18.1870
103.1200 14.3823
103.1300 18.4111
103.1400 12.5894
103.1500 23.0793
103.1600 15.8063
103.1700 15.9709
103.1800 10.4747
103.1900 18.2132
103.2000 11.2318
103.2100 18.5148
103.2200 16.8917
103.2300 18.5243
103.2400 23.4893
103.2500 16.0706
103.2600 15.4356
103.2700 17.9272
103.2800 10.8922
103.2900 12.6079
103.3000 25.5769
103.3100 12.9970
103.3200 12.4621
103.3300 19.3332
103.3400 15.3609
103.3500 13.6437
103.3600 24.3912
103.3700 13.5026
103.3800 17.3033
103.3900 15.4751
103.4000 16.6032
103.4100 17.5999
103.4200 20.3438
103.4300 14.0667
103.4400 19.4263
103.4500 12.4881
103.4600 15.8415
103.4700 17.2133
103.4800 20.8064
103.4900 20.9167
103.5000 20.6398
103.5100 23.5188
103.5200 20.6048
103.5300 24.0412
103.5400 18.5331
103.5500 14.6341
103.5600 15.1677
103.5700 19.3028
103.5800 16.2842
103.5900 19.0193
103.6000 20.6525
103.6100 28.5965
103.6200 27.3637
103.6300 20.6700
103.6400 34.4771
103.6500 20.6286
103.6600 20.3774
103.6700 12.9191
103.6800 23.2518
103.6900 26.7694
103.7000 17.7197
103.7100 14.4056
103.7200 17.1900
103.7300 16.0345
103.7400 13.6103
103.7500 15.0455
103.7600 17.1747
103.7700 24.9667
103.7800 20.5124
103.7900 23.8989
103.8000 16.5632
103.8100 29.0140
103.8200 15.6857
103.8300 16.7231
103.8400 18.6156
103.8500 18.6516
103.8600 18.2629
103.8700 20.2202
103.8800 17.3771
103.8900 11.1645
103.9000 16.0229
103.9100 21.2903
103.9200 19.7861
103.9300 18.8254
103.9400 18.0304
103.9500 13.2425
103.9600 13.3141
103.9700 13.9898
103.9800 16.1782
103.9900 22.0520
104.0000 16.6075
104.0100 20.9151
104.0200 18.8801
104.0300 13.3208
104.0400 15.5166
104.0500 12.4009
104.0600 12.8198
104.0700 12.4864
104.0800 20.9101
104.0900 18.3371
104.1000 16.1397
104.1100 15.0021
104.1200 21.2587
104.1300 17.3968
104.1400 21.1020
104.1500 15.8156
104.1600 18.6601
104.1700 21.3405
104.1800 22.0837
104.1900 24.4913
104.2000 20.1062
104.2100 13.0554
104.2200 19.8731
104.2300 13.7456
104.2400 17.5281
104.2500 16.6025
104.2600 15.6629
104.2700 15.9965
104.2800 17.1774
104.2900 17.0091
104.3000 16.2788
104.3100 18.9098
104.3200 21.7670
104.3300 17.7115
104.3400 18.2158
104.3500 17.1055
104.3600 20.6275
104.3700 17.9449
104.3800 25.0714
104.3900 18.7182
104.4000 12.6583
104.4100 15.6498
104.4200 12.2751
104.4300 16.5618
104.4400 18.6600
104.4500 11.8612
104.4600 11.5426
104.4700 12.7605
104.4800 15.1449
104.4900 9.2933
104.5000 10.7142
104.5100 16.2080
104.5200 20.1520
104.5300 21.2067
104.5400 15.2280
104.5500 18.8798
104.5600 19.9215
104.5700 15.4569
104.5800 14.6220
104.5900 16.3410
104.6000 14.3456
104.6100 13.9360
104.6200 18.2637
104.6300 17.1491
104.6400 25.4976
104.6500 16.8829
104.6600 18.3432
104.6700 15.5862
104.6800 17.9727
104.6900 13.4229
104.7000 15.5012
104.7100 23.0096
104.7200 18.2965
104.7300 11.5593
104.7400 17.0381
104.7500 12.8076
104.7600 14.9581
104.7700 17.8711
104.7800 15.7976
104.7900 22.2050
104.8000 19.5294
104.8100 18.9608
104.8200 21.5400
104.8300 16.2824
104.8400 21.6931
104.8500 21.7463
104.8600 16.5635
104.8700 12.0424
104.8800 18.4547
104.8900 14.0211
104.9000 22.6416
104.9100 13.9758
104.9200 17.3996
104.9300 13.5440
104.9400 13.6445
104.9500 13.3802
104.9600 14.5770
104.9700 16.1238
104.9800 18.7680
104.9900 19.0352
105.0000 28.5909
105.0100 14.6822
105.0200 14.3636
105.0300 17.3812
105.0400 11.7058
105.0500 10.2358
105.0600 16.1171
105.0700 23.4400
105.0800 15.7292
105.0900 19.1887
105.1000 18.6435
105.1100 20.9298
105.1200 15.7800
105.1300 19.4283
105.1400 19.5977
105.1500 22.0840
105.1600 17.7775
105.1700 18.9805
105.1800 16.0690
105.1900 17.3986
105.2000 11.3899
105.2100 15.4293
105.2200 12.3638
105.2300 17.0234
105.2400 17.5742
105.2500 18.7776
105.2600 20.2147
105.2700 22.1725
105.2800 21.4881
105.2900 24.2321
105.3000 23.6766
105.3100 19.8594
105.3200 17.8670
105.3300 20.1921
105.3400 17.4656
105.3500 19.2070
105.3600 14.3606
105.3700 16.0997
105.3800 21.0543
105.3900 25.4484
105.4000 14.9601
105.4100 15.7516
105.4200 20.6099
105.4300 16.8283
105.4400 12.0950
105.4500 18.4403
105.4600 20.3541
105.4700 17.3342
105.4800 14.1310
105.4900 16.9833
105.5000 15.2586
105.5100 18.6158
105.5200 8.9232
105.5300 16.2241
105.5400 19.6329
105.5500 9.2511
105.5600 23.7717
105.5700 25.8599
105.5800 28.2678
105.5900 17.7892
105.6000 18.6095
105.6100 17.3708
105.6200 15.5581
105.6300 15.2975
105.6400 15.0602
105.6500 14.1119
105.6600 14.2389
105.6700 20.1741
105.6800 16.8635
105.6900 22.5442
105.7000 18.4251
105.7100 23.7624
105.7200 15.2172
105.7300 14.1498
105.7400 18.4104
105.7500 9.3494
105.7600 18.5548
105.7700 20.3942
105.7800 12.0174
105.7900 17.1964
105.8000 14.2086
105.8100 12.9100
105.8200 13.1448
105.8300 20.8266
105.8400 10.0604
105.8500 20.0362
105.8600 7.4544
105.8700 12.3171
105.8800 16.3185
105.8900 12.8850
105.9000 13.9731
105.9100 13.0749
105.9200 16.9855
105.9300 15.4128
105.9400 13.8804
105.9500 18.7493
105.9600 19.2101
105.9700 12.3843
105.9800 18.7467
105.9900 15.0653
106.0000 19.9540
106.0100 17.8529
106.0200 16.3881
106.0300 16.3562
106.0400 19.8377
106.0500 13.2373
106.0600 22.3746
106.0700 20.6780
106.0800 16.7770
106.0900 20.5827
106.1000 16.7141
106.1100 14.5753
106.1200 17.4511
106.1300 11.8113
106.1400 16.7036
106.1500 17.0851
106.1600 14.2519
106.1700 25.0736
106.1800 22.7801
106.1900 16.8733
106.2000 19.7468
106.2100 20.1170
106.2200 16.0186
106.2300 12.6686
106.2400 24.1984
106.2500 24.1419
106.2600 13.1314
106.2700 16.8708
106.2800 15.8328
106.2900 28.7852
106.3000 29.7942
106.3100 22.5628
106.3200 20.4489
106.3300 19.2091
106.3400 17.4145
106.3500 10.3777
106.3600 14.0273
106.3700 14.3683
106.3800 12.0611
106.3900 20.7851
106.4000 16.0238
106.4100 21.3104
106.4200 15.2761
106.4300 17.3273
106.4400 16.3172
106.4500 19.2763
106.4600 15.9298
106.4700 22.0699
106.4800 19.2940
106.4900 13.4618
106.5000 16.6710
106.5100 14.4311
106.5200 17.1061
106.5300 16.7146
106.5400 12.3238
106.5500 20.6719
106.5600 15.9523
106.5700 21.8158
106.5800 16.0979
106.5900 11.3134
106.6000 16.3655
106.6100 14.1421
106.6200 14.7694
106.6300 16.6835
106.6400 17.9237
106.6500 18.1539
106.6600 12.5768
106.6700 17.5539
106.6800 22.5502
106.6900 15.2168
106.7000 21.1474
106.7100 15.8991
106.7200 13.1735
106.7300 16.3687
106.7400 15.2094
106.7500 25.1081
106.7600 24.9650
106.7700 16.7454
106.7800 18.6536
106.7900 22.4676
106.8000 17.1904
106.8100 27.9800
106.8200 18.8848
106.8300 24.8398
106.8400 14.7327
106.8500 14.9129
106.8600 14.5890
106.8700 13.8433
106.8800 13.1676
106.8900 20.8438
106.9000 24.9883
106.9100 16.4479
106.9200 18.7244
106.9300 9.6382
106.9400 17.7705
106.9500 11.0973
106.9600 24.6662
106.9700 21.2726
106.9800 12.2383
106.9900 18.6547
107.0000 26.4636
107.0100 9.7318
107.0200 17.1074
107.0300 12.6480
107.0400 16.2002
107.0500 9.6613
107.0600 14.7176
107.0700 10.1771
107.0800 14.1478
107.0900 18.2914
107.1000 14.0342
107.1100 22.5281
107.1200 14.2931
107.1300 22.1849
107.1400 12.9956
107.1500 21.2820
107.1600 14.2187
107.1700 12.1909
107.1800 15.3661
107.1900 12.2382
107.2000 23.5128
107.2100 16.6972
107.2200 14.7294
107.2300 11.8061
107.2400 14.1100
107.2500 11.1817
107.2600 19.9405
107.2700 20.0289
107.2800 15.8518
107.2900 12.0053
107.3000 17.5074
107.3100 11.7623
107.3200 12.5422
107.3300 10.9409
107.3400 16.5058
107.3500 18.3787
107.3600 17.5831
107.3700 19.2398
107.3800 27.0066
107.3900 25.0564
107.4000 24.3532
107.4100 15.6315
107.4200 12.9268
107.4300 18.8718
107.4400 17.4294
107.4500 21.1486
107.4600 12.7897
107.4700 17.2980
107.4800 17.8526
107.4900 21.5242
107.5000 20.0937
107.5100 16.6415
107.5200 14.1390
107.5300 11.2878
107.5400 9.9770
107.5500 9.0818
107.5600 22.5041
107.5700 23.1387
107.5800 16.7605
107.5900 16.3108
107.6000 10.2072
107.6100 14.4926
107.6200 15.9032
107.6300 15.3984
107.6400 16.6443
107.6500 15.9548
107.6600 15.9483
107.6700 19.9309
107.6800 18.9223
107.6900 21.0907
107.7000 14.3235
107.7100 13.3382
107.7200 18.8761
107.7300 14.6241
107.7400 15.9670
107.7500 17.8278
107.7600 14.1300
107.7700 15.5333
107.7800 20.8654
107.7900 13.8160
107.8000 14.3359
107.8100 20.1169
107.8200 26.5107
107.8300 16.1651
107.8400 18.1157
107.8500 21.0496
107.8600 16.1178
107.8700 13.6529
107.8800 16.7803
107.8900 8.1866
107.9000 18.1777
107.9100 16.5383
107.9200 18.5134
107.9300 11.2280
107.9400 15.7819
107.9500 15.6201
107.9600 21.2151
107.9700 25.3723
107.9800 23.7243
107.9900 17.4637
108.0000 19.0853
108.0100 19.7799
108.0200 24.0559
108.0300 11.5110
108.0400 12.3682
108.0500 10.0448
108.0600 22.0917
108.0700 15.1834
108.0800 20.4465
108.0900 17.7228
108.1000 23.8955
108.1100 17.2056
108.1200 15.2634
108.1300 20.6771
108.1400 20.9901
108.1500 15.9820
108.1600 18.9818
108.1700 20.3904
108.1800 16.0866
108.1900 18.1121
108.2000 17.3036
108.2100 8.4035
108.2200 15.3252
108.2300 12.7718
108.2400 16.9061
108.2500 7.4596
108.2600 16.9735
108.2700 22.6058
108.2800 20.0223
108.2900 23.5037
108.3000 18.7573
108.3100 14.8348
108.3200 20.4596
108.3300 12.9919
108.3400 15.4726
108.3500 13.8439
108.3600 13.8732
108.3700 18.2134
108.3800 15.6525
108.3900 26.5107
108.4000 14.6425
108.4100 14.8431
108.4200 13.1873
108.4300 13.0226
108.4400 23.7752
108.4500 25.6754
108.4600 14.6309
108.4700 11.1464
108.4800 21.1356
108.4900 17.5497
108.5000 14.4083
108.5100 16.7333
108.5200 17.1489
108.5300 20.3726
108.5400 12.4152
108.5500 24.1410
108.5600 17.2648
108.5700 24.9304
108.5800 16.9688
108.5900 21.5638
108.6000 16.6107
108.6100 15.8514
108.6200 16.2921
108.6300 17.8148
108.6400 18.7351
108.6500 21.9016
108.6600 16.9447
108.6700 22.0991
108.6800 21.4171
108.6900 20.7761
108.7000 18.5826
108.7100 18.6955
108.7200 16.7510
108.7300 15.8745
108.7400 8.1840
108.7500 16.0414
108.7600 14.6115
108.7700 18.5866
108.7800 15.5283
108.7900 9.3554
108.8000 16.5886
108.8100 11.4360
108.8200 17.4215
108.8300 12.1538
108.8400 15.3414
108.8500 27.1263
108.8600 18.2414
108.8700 21.8298
108.8800 14.1268
108.8900 15.5337
108.9000 26.1481
108.9100 20.6558
108.9200 15.1317
108.9300 16.5054
108.9400 21.7295
108.9500 18.1287
108.9600 16.5054
108.9700 17.2107
108.9800 17.0836
108.9900 13.5299
109.0000 18.1868
109.0100 14.4240
109.0200 22.6710
109.0300 12.4115
109.0400 21.5379
109.0500 19.5012
109.0600 19.4306
109.0700 23.3265
109.0800 13.9005
109.0900 17.7553
109.1000 13.1545
109.1100 20.7226
109.1200 16.2596
109.1300 13.4302
109.1400 12.0694
109.1500 18.4617
109.1600 17.3787
109.1700 17.4582
109.1800 15.0072
109.1900 13.8460
109.2000 20.0636
109.2100 14.8126
109.2200 19.7069
109.2300 8.8841
109.2400 24.6018
109.2500 13.4820
109.2600 23.2765
109.2700 21.3363
109.2800 16.9596
109.2900 9.4892
109.3000 21.3579
109.3100 15.1424
109.3200 12.9718
109.3300 15.1594
109.3400 21.6275
109.3500 12.0026
109.3600 11.7563
109.3700 23.8057
109.3800 9.3280
109.3900 20.4202
109.4000 18.0331
109.4100 15.6137
109.4200 23.1663
109.4300 12.2334
109.4400 17.7361
109.4500 15.9528
109.4600 23.3077
109.4700 16.0732
109.4800 17.4235
109.4900 22.9146
109.5000 19.6765
109.5100 18.9049
109.5200 10.1782
109.5300 16.1993
109.5400 9.6183
109.5500 23.3629
109.5600 16.1191
109.5700 24.8488
109.5800 8.5219
109.5900 21.2775
109.6000 20.9665
109.6100 20.2633
109.6200 18.4190
109.6300 19.9796
109.6400 16.4638
109.6500 13.3137
109.6600 17.1248
109.6700 23.2283
109.6800 15.7356
109.6900 16.1043
109.7000 13.6148
109.7100 9.5749
109.7200 17.1561
109.7300 17.7532
109.7400 19.2189
109.7500 22.4599
109.7600 14.2674
109.7700 17.3932
109.7800 12.2192
109.7900 12.3493
109.8000 19.0012
109.8100 21.4135
109.8200 21.0876
109.8300 18.9748
109.8400 13.4437
109.8500 15.1961
109.8600 12.7814
109.8700 10.5180
109.8800 17.8872
109.8900 14.4776
109.9000 17.3061
109.9100 14.4227
109.9200 22.1261
109.9300 17.8044
109.9400 22.1956
109.9500 18.4438
109.9600 17.8085
109.9700 25.2090
109.9800 21.8975
109.9900 19.4781
110.0000 15.2971
110.0100 20.1095
110.0200 18.2359
110.0300 20.6420
110.0400 24.2336
110.0500 20.4442
110.0600 21.5834
110.0700 16.8511
110.0800 28.1569
110.0900 17.7465
110.1000 9.5573
110.1100 16.4532
110.1200 16.7869
110.1300 27.0693
110.1400 17.7257
110.1500 18.1949
110.1600 10.5851
110.1700 15.8275
110.1800 20.8211
110.1900 13.3346
110.2000 15.1868
110.2100 15.7362
110.2200 25.6947
110.2300 24.5307
110.2400 20.8521
110.2500 13.1430
110.2600 14.9968
110.2700 16.1560
110.2800 26.2252
110.2900 17.8847
110.3000 16.6318
110.3100 9.5821
110.3200 14.8936
110.3300 21.3060
110.3400 17.5026
110.3500 16.8141
110.3600 22.3393
110.3700 9.4786
110.3800 20.5399
110.3900 21.7440
110.4000 18.8267
110.4100 20.1287
110.4200 22.4421
110.4300 18.4763
110.4400 19.8047
110.4500 13.5107
110.4600 17.5509
110.4700 16.5141
110.4800 15.2368
110.4900 21.7662
110.5000 23.6141
110.5100 23.7846
110.5200 17.6120
110.5300 15.8838
110.5400 15.3041
110.5500 13.1773
110.5600 19.2530
110.5700 18.5436
110.5800 14.6458
110.5900 21.5564
110.6000 29.9826
110.6100 15.8007
110.6200 28.1553
110.6300 24.4340
110.6400 16.8131
110.6500 18.2552
110.6600 14.5314
110.6700 18.1930
110.6800 14.4009
110.6900 20.9206
110.7000 15.4496
110.7100 19.3721
110.7200 15.6059
110.7300 24.2032
110.7400 29.3808
110.7500 23.3859
110.7600 20.4863
110.7700 23.3960
110.7800 14.0032
110.7900 23.7639
110.8000 16.6272
110.8100 14.1540
110.8200 12.6139
110.8300 14.2892
110.8400 15.6665
110.8500 11.9898
110.8600 16.0942
110.8700 10.7677
110.8800 21.2022
110.8900 14.9315
110.9000 17.7021
110.9100 13.2140
110.9200 17.0641
110.9300 14.6434
110.9400 22.0667
110.9500 15.9202
110.9600 19.3917
110.9700 14.6852
110.9800 14.6377
110.9900 16.7130
111.0000 11.2557
111.0100 16.5102
111.0200 15.5367
111.0300 12.2919
111.0400 15.9277
111.0500 13.6264
111.0600 15.8402
111.0700 22.8518
111.0800 13.4528
111.0900 20.7114
111.1000 19.8131
111.1100 15.4401
111.1200 18.7038
111.1300 24.8978
111.1400 15.8241
111.1500 15.2155
111.1600 10.8656
111.1700 13.5670
111.1800 16.0057
111.1900 21.5465
111.2000 13.5856
111.2100 15.3932
111.2200 15.7956
111.2300 18.0473
111.2400 15.0646
111.2500 17.7986
111.2600 11.2132
111.2700 12.2924
111.2800 18.7042
111.2900 20.8983
111.3000 19.1190
111.3100 12.0093
111.3200 12.7805
111.3300 11.5263
111.3400 10.6545
111.3500 8.2775
111.3600 11.9877
111.3700 15.2338
111.3800 12.1444
111.3900 16.9137
111.4000 16.4164
111.4100 15.5819
111.4200 10.6141
111.4300 12.6782
111.4400 17.1077
111.4500 20.6646
111.4600 13.6947
111.4700 15.7642
111.4800 17.7968
111.4900 23.4880
111.5000 20.6983
111.5100 17.7486
111.5200 16.4638
111.5300 19.2192
111.5400 15.8315
111.5500 10.4680
111.5600 20.4726
111.5700 17.1759
111.5800 16.5897
111.5900 15.3339
111.6000 13.7273
111.6100 18.3602
111.6200 16.6584
111.6300 14.8512
111.6400 11.4032
111.6500 22.9336
111.6600 7.4452
111.6700 16.3456
111.6800 15.7946
111.6900 10.0851
111.7000 12.7156
111.7100 19.7035
111.7200 22.5703
111.7300 21.1174
111.7400 19.8917
111.7500 19.6835
111.7600 19.8098
111.7700 24.5915
111.7800 11.6367
111.7900 14.2665
111.8000 22.2068
111.8100 14.8054
111.8200 21.3811
111.8300 13.9237
111.8400 24.2972
111.8500 13.5896
111.8600 17.1705
111.8700 14.2663
111.8800 15.7807
111.8900 11.8345
111.9000 19.0148
111.9100 17.8986
111.9200 13.2647
111.9300 19.1546
111.9400 14.6231
111.9500 18.2849
111.9600 19.2427
111.9700 16.4318
111.9800 9.4709
111.9900 14.8184
112.0000 15.3474
112.0100 12.0959
112.0200 13.3384
112.0300 15.6693
112.0400 15.0268
112.0500 11.5850
112.0600 10.3281
112.0700 17.5599
112.0800 12.4043
112.0900 16.1345
112.1000 13.5643
112.1100 14.0665
112.1200 20.7889
112.1300 12.5287
112.1400 18.5721
112.1500 15.1026
112.1600 19.2183
112.1700 19.2916
112.1800 15.6283
112.1900 24.7925
112.2000 15.0409
112.2100 16.0076
112.2200 16.6654
112.2300 19.3134
112.2400 21.3412
112.2500 20.3129
112.2600 23.3885
112.2700 23.7371
112.2800 12.6435
112.2900 15.1808
112.3000 20.3517
112.3100 22.5224
112.3200 19.0695
112.3300 12.1781
112.3400 13.5704
112.3500 15.9006
112.3600 12.8324
112.3700 17.0280
112.3800 13.3259
112.3900 16.1760
112.4000 18.6600
112.4100 16.7648
112.4200 16.0920
112.4300 12.2645
112.4400 12.5292
112.4500 16.6127
112.4600 14.8417
112.4700 14.5181
112.4800 17.6920
112.4900 8.3708
112.5000 10.8643
112.5100 12.3666
112.5200 14.5768
112.5300 17.9715
112.5400 14.8902
112.5500 15.1315
112.5600 14.8903
112.5700 18.3598
112.5800 19.5907
112.5900 21.9453
112.6000 20.4325
112.6100 18.9294
112.6200 21.6705
112.6300 14.5775
112.6400 17.3998
112.6500 12.6430
112.6600 15.1192
112.6700 12.2415
112.6800 13.3183
112.6900 14.4764
112.7000 11.8357
112.7100 22.7513
112.7200 15.7448
112.7300 13.6195
112.7400 16.9052
112.7500 18.0656
112.7600 17.7357
112.7700 17.6144
112.7800 18.3667
112.7900 19.8367
112.8000 13.4355
112.8100 21.8664
112.8200 17.7484
112.8300 11.0422
112.8400 9.5830
112.8500 21.0527
112.8600 14.4817
112.8700 15.3458
112.8800 21.4181
112.8900 21.4424
112.9000 15.8198
112.9100 9.5965
112.9200 15.5532
112.9300 21.5297
112.9400 13.0902
112.9500 22.7154
112.9600 21.8826
112.9700 15.4176
112.9800 18.3751
112.9900 21.5343
113.0000 22.3019
113.0100 17.8782
113.0200 12.9553
113.0300 14.8818
113.0400 23.6223
113.0500 25.0297
113.0600 10.8660
113.0700 11.0056
113.0800 13.0292
113.0900 22.0032
113.1000 14.7818
113.1100 22.4229
113.1200 15.1627
113.1300 26.6074
113.1400 18.4300
113.1500 26.9471
113.1600 14.3340
113.1700 18.9034
113.1800 11.3557
113.1900 14.2588
113.2000 12.4038
113.2100 17.2815
113.2200 10.2495
113.2300 16.1383
113.2400 21.0167
113.2500 15.2505
113.2600 11.7272
113.2700 20.8778
113.2800 14.4780
113.2900 16.7594
113.3000 19.0004
113.3100 16.3632
113.3200 12.9609
113.3300 11.9964
113.3400 12.0429
113.3500 23.1299
113.3600 16.7112
113.3700 19.4537
113.3800 22.8532
113.3900 19.0473
113.4000 13.3784
113.4100 16.7558
113.4200 15.7865
113.4300 13.6097
113.4400 17.6160
113.4500 21.1563
113.4600 20.5821
113.4700 21.8445
113.4800 18.1269
113.4900 20.8173
113.5000 15.7608
113.5100 23.1362
113.5200 22.9573
113.5300 14.2846
113.5400 16.8158
113.5500 9.9986
113.5600 13.8925
113.5700 18.3325
113.5800 18.4497
113.5900 17.4223
113.6000 25.6116
113.6100 18.9107
113.6200 24.0369
113.6300 17.4726
113.6400 13.4408
113.6500 20.6048
113.6600 19.7648
113.6700 14.0257
113.6800 14.7638
113.6900 16.7346
113.7000 14.4429
113.7100 17.0417
113.7200 20.8579
113.7300 25.1785
113.7400 14.0880
113.7500 16.7580
113.7600 18.9268
113.7700 17.6463
113.7800 16.6926
113.7900 17.8096
113.8000 13.8121
113.8100 17.5955
113.8200 14.5194
113.8300 11.0768
113.8400 12.2144
113.8500 21.4511
113.8600 16.9025
113.8700 13.4512
113.8800 10.2357
113.8900 26.5104
113.9000 20.9777
113.9100 19.5194
113.9200 23.0580
113.9300 22.7446
113.9400 19.9274
113.9500 22.3923
113.9600 16.3595
113.9700 21.4267
113.9800 21.7750
113.9900 17.2305
114.0000 14.5423
114.0100 14.6333
114.0200 12.2806
114.0300 19.1449
114.0400 16.6682
114.0500 15.8002
114.0600 18.8031
114.0700 16.2835
114.0800 15.8203
114.0900 24.8662
114.1000 18.7362
114.1100 21.9872
114.1200 19.3882
114.1300 17.6187
114.1400 13.7331
114.1500 16.8694
114.1600 17.9648
114.1700 21.3134
114.1800 13.9270
114.1900 15.8281
114.2000 25.4758
114.2100 14.0633
114.2200 15.5724
114.2300 17.3060
114.2400 21.2245
114.2500 16.9770
114.2600 20.0814
114.2700 18.7472
114.2800 20.5424
114.2900 14.9756
114.3000 22.5875
114.3100 16.3592
114.3200 10.9177
114.3300 19.5617
114.3400 24.4617
114.3500 23.9088
114.3600 13.5680
114.3700 20.6210
114.3800 20.2063
114.3900 23.3380
114.4000 21.4500
114.4100 18.5142
114.4200 13.6122
114.4300 18.8118
114.4400 17.1082
114.4500 19.3797
114.4600 15.8263
114.4700 22.1504
114.4800 23.5630
114.4900 23.6621
114.5000 17.4539
114.5100 17.4067
114.5200 14.8963
114.5300 16.4963
114.5400 25.7247
114.5500 24.5331
114.5600 31.5910
114.5700 28.1573
114.5800 12.8597
114.5900 9.9797
114.6000 15.4060
114.6100 13.3793
114.6200 15.7442
114.6300 13.6872
114.6400 20.0815
114.6500 13.6987
114.6600 18.7225
114.6700 18.4182
114.6800 17.8994
114.6900 17.7285
114.7000 16.4428
114.7100 15.8481
114.7200 17.1895
114.7300 16.0183
114.7400 19.2656
114.7500 23.9275
114.7600 22.7975
114.7700 18.6822
114.7800 13.2303
114.7900 15.4811
114.8000 17.9456
114.8100 17.0541
114.8200 15.5906
114.8300 18.0443
114.8400 19.0063
114.8500 15.1964
114.8600 22.9537
114.8700 22.3021
114.8800 16.9078
114.8900 19.5029
114.9000 19.0141
114.9100 19.5984
114.9200 26.7597
114.9300 23.9727
114.9400 18.4781
114.9500 13.8294
114.9600 14.4419
114.9700 16.1869
114.9800 12.5573
114.9900 13.9323
115.0000 13.0038
115.0100 15.2915
115.0200 20.9583
115.0300 23.6740
115.0400 20.3819
115.0500 19.8558
115.0600 15.6618
115.0700 16.7538
115.0800 14.3236
115.0900 17.3539
115.1000 24.7745
115.1100 17.9811
115.1200 18.9023
115.1300 15.8912
115.1400 21.5151
115.1500 16.1822
115.1600 12.5937
115.1700 18.4947
115.1800 14.0000
115.1900 15.2449
115.2000 17.0105
115.2100 17.2937
115.2200 23.6712
115.2300 24.5817
115.2400 22.3215
115.2500 16.5990
115.2600 16.8582
115.2700 15.1188
115.2800 20.4810
115.2900 15.2320
115.3000 24.7688
115.3100 16.2647
115.3200 26.7960
115.3300 24.2719
115.3400 25.9592
115.3500 20.0478
115.3600 30.7297
115.3700 23.7225
115.3800 35.6947
115.3900 18.9611
115.4000 21.2766
115.4100 18.0948
115.4200 17.3091
115.4300 19.6288
115.4400 25.7921
115.4500 26.1082
115.4600 21.9956
115.4700 28.6998
115.4800 22.9477
115.4900 15.9357
115.5000 21.0751
115.5100 21.7941
115.5200 20.5489
115.5300 23.7446
115.5400 18.4115
115.5500 30.4056
115.5600 27.8762
115.5700 41.1893
115.5800 31.0417
115.5900 28.3489
115.6000 28.5283
115.6100 32.3384
115.6200 23.2085
115.6300 22.9656
115.6400 30.0711
115.6500 39.6776
115.6600 34.4109
115.6700 36.4535
115.6800 38.0080
115.6900 40.0560
115.7000 26.2537
115.7100 42.7552
115.7200 36.9909
115.7300 32.8738
115.7400 30.0683
115.7500 38.0723
115.7600 38.8679
115.7700 38.3882
115.7800 41.0399
115.7900 35.9295
115.8000 35.7627
115.8100 44.1583
115.8200 33.7701
115.8300 47.4829
115.8400 53.7879
115.8500 49.4870
115.8600 45.8709
115.8700 42.7082
115.8800 53.6125
115.8900 47.8209
115.9000 45.3534
115.9100 40.4947
115.9200 41.3571
115.9300 39.7782
115.9400 40.7974
115.9500 36.2011
115.9600 39.2257
115.9700 42.8051
115.9800 41.4244
115.9900 47.1905
116.0000 49.0300
116.0100 43.3726
116.0200 43.1021
116.0300 44.5302
116.0400 46.6607
116.0500 44.2017
116.0600 43.9983
116.0700 39.4161
116.0800 61.6504
116.0900 41.9190
116.1000 44.9271
116.1100 41.6285
116.1200 40.2306
116.1300 53.5926
116.1400 41.4117
116.1500 48.0520
116.1600 35.9528
116.1700 30.6550
116.1800 35.0800
116.1900 38.4129
116.2000 39.8608
116.2100 28.6968
116.2200 37.2077
116.2300 39.5019
116.2400 36.9010
116.2500 31.7222
116.2600 27.0780
116.2700 25.6995
116.2800 35.9713
116.2900 35.6510
116.3000 33.6359
116.3100 35.2020
116.3200 35.9718
116.3300 25.3385
116.3400 30.7206
116.3500 21.4970
116.3600 41.3688
116.3700 36.0059
116.3800 22.5510
116.3900 27.1531
116.4000 32.8199
116.4100 19.8313
116.4200 22.5784
116.4300 31.1933
116.4400 29.3613
116.4500 20.3666
116.4600 21.6391
116.4700 24.8755
116.4800 23.6590
116.4900 22.4463
116.5000 22.5873
116.5100 23.1203
116.5200 19.1987
116.5300 35.9035
116.5400 20.9385
116.5500 25.8650
116.5600 18.7092
116.5700 21.2589
116.5800 25.0281
116.5900 29.3204
116.6000 25.1255
116.6100 27.4483
116.6200 25.6158
116.6300 26.5071
116.6400 20.1461
116.6500 17.5859
116.6600 19.1964
116.6700 15.7112
116.6800 24.5974
116.6900 21.4562
116.7000 32.4822
116.7100 23.7849
116.7200 24.2496
116.7300 19.4823
116.7400 22.9408
116.7500 22.3800
116.7600 16.2181
116.7700 19.4151
116.7800 23.7617
116.7900 19.8775
116.8000 19.6502
116.8100 16.4624
116.8200 17.0723
116.8300 22.0545
116.8400 17.7717
116.8500 14.3648
116.8600 18.8396
116.8700 13.1580
116.8800 21.3500
116.8900 15.4325
116.9000 13.5638
116.9100 17.5875
116.9200 18.5785
116.9300 21.4299
116.9400 18.0997
116.9500 19.6033
116.9600 11.0769
116.9700 16.0922
116.9800 14.9759
116.9900 15.4889
117.0000 19.6965
117.0100 16.8784
117.0200 13.9612
117.0300 18.6507
117.0400 26.9784
117.0500 25.5558
117.0600 18.2155
117.0700 13.9519
117.0800 14.6105
117.0900 19.0376
117.1000 16.6300
117.1100 14.8715
117.1200 18.0005
117.1300 21.1061
117.1400 23.0076
117.1500 23.6298
117.1600 17.2806
117.1700 22.7078
117.1800 26.7605
117.1900 15.1805
117.2000 13.6318
117.2100 15.1520
117.2200 13.2361
117.2300 15.8144
117.2400 14.2181
117.2500 18.1955
117.2600 21.8927
117.2700 21.2905
117.2800 12.6331
117.2900 16.3233
117.3000 14.9594
117.3100 17.1440
117.3200 27.8243
117.3300 21.1876
117.3400 17.7916
117.3500 15.4462
117.3600 11.7560
117.3700 12.1224
117.3800 13.5996
117.3900 21.8182
117.4000 18.3216
117.4100 18.4026
117.4200 16.8217
117.4300 18.7747
117.4400 19.1145
117.4500 17.7097
117.4600 15.0256
117.4700 18.5019
117.4800 25.5788
117.4900 8.1910
117.5000 16.0386
117.5100 16.3717
117.5200 19.0602
117.5300 19.5206
117.5400 29.5488
117.5500 17.3421
117.5600 19.1985
117.5700 23.9241
117.5800 21.3645
117.5900 21.4287
117.6000 15.2154
117.6100 25.8124
117.6200 23.2461
117.6300 21.1603
117.6400 21.8926
117.6500 19.9993
117.6600 13.0646
117.6700 19.5742
117.6800 14.1111
117.6900 18.5021
117.7000 11.7851
117.7100 11.8344
117.7200 19.3501
117.7300 19.4639
117.7400 24.2207
117.7500 17.7249
117.7600 20.4392
117.7700 23.7912
117.7800 18.0325
117.7900 15.4842
117.8000 15.5449
117.8100 17.6074
117.8200 18.2455
117.8300 24.4677
117.8400 24.9800
117.8500 17.3894
117.8600 16.0025
117.8700 19.4322
117.8800 9.5851
117.8900 14.8776
117.9000 22.1455
117.9100 15.9869
117.9200 17.6069
117.9300 16.7645
117.9400 15.2452
117.9500 8.1903
117.9600 21.4370
117.9700 17.9981
117.9800 22.6734
117.9900 15.4374
118.0000 16.4950
118.0100 15.7387
118.0200 19.6792
118.0300 24.3295
118.0400 11.4472
118.0500 22.6506
118.0600 20.9057
118.0700 15.3753
118.0800 17.0914
118.0900 13.1321
118.1000 19.8531
118.1100 23.5342
118.1200 11.5858
118.1300 14.7227
118.1400 15.8610
118.1500 30.7239
118.1600 16.5851
118.1700 27.1555
118.1800 19.3485
118.1900 24.3108
118.2000 15.8984
118.2100 19.5687
118.2200 19.9350
118.2300 15.9792
118.2400 15.7772
118.2500 21.5674
118.2600 16.0333
118.2700 18.5416
118.2800 18.1217
118.2900 18.9972
118.3000 15.0065
118.3100 30.4391
118.3200 10.5900
118.3300 24.5853
118.3400 9.1483
118.3500 16.4799
118.3600 16.2093
118.3700 20.2560
118.3800 22.3800
118.3900 19.9098
118.4000 19.7770
118.4100 8.5340
118.4200 9.8494
118.4300 18.3221
118.4400 13.1199
118.4500 15.6340
118.4600 16.7054
118.4700 21.0189
118.4800 22.8825
118.4900 19.8369
118.5000 17.0323
118.5100 17.2712
118.5200 15.9428
118.5300 20.9092
118.5400 22.5711
118.5500 27.5374
118.5600 13.8197
118.5700 16.4523
118.5800 18.4382
118.5900 22.4497
118.6000 25.1723
118.6100 18.2837
118.6200 19.4046
118.6300 12.2411
118.6400 14.2854
118.6500 21.0730
118.6600 20.5404
118.6700 12.8667
118.6800 14.1247
118.6900 15.1390
118.7000 31.7199
118.7100 21.7220
118.7200 20.6130
118.7300 22.6820
118.7400 20.3367
118.7500 28.9400
118.7600 18.2909
118.7700 28.1164
118.7800 25.9410
118.7900 12.7180
118.8000 21.6797
118.8100 14.1006
118.8200 19.6386
118.8300 10.1405
118.8400 13.8708
118.8500 17.9172
118.8600 22.4746
118.8700 21.0078
118.8800 16.2323
118.8900 20.5489
118.9000 16.6376
118.9100 14.4123
118.9200 14.3978
118.9300 12.8981
118.9400 22.8196
118.9500 21.0126
118.9600 19.6723
118.9700 15.4180
118.9800 16.9236
118.9900 19.3979
119.0000 18.7671
119.0100 18.4765
119.0200 22.8397
119.0300 25.1998
119.0400 25.0812
119.0500 23.6290
119.0600 18.4197
119.0700 14.7437
119.0800 10.0852
119.0900 15.1525
119.1000 23.8818
119.1100 15.1281
119.1200 20.7993
119.1300 27.0491
119.1400 14.9462
119.1500 17.3667
119.1600 14.2833
119.1700 23.9547
119.1800 13.2611
119.1900 17.4561
119.2000 19.2532
119.2100 18.6684
119.2200 22.9831
119.2300 19.4875
119.2400 16.6200
119.2500 21.6376
119.2600 18.1910
119.2700 21.5472
119.2800 15.7648
119.2900 20.5091
119.3000 18.0542
119.3100 12.9419
119.3200 14.6679
119.3300 18.0454
119.3400 15.7943
119.3500 12.2874
119.3600 23.9532
119.3700 22.5235
119.3800 23.0122
119.3900 26.9562
119.4000 18.7664
119.4100 20.6810
119.4200 14.7106
119.4300 24.7759
119.4400 17.3982
119.4500 17.2644
119.4600 20.9455
119.4700 22.4986
119.4800 9.7317
119.4900 15.4884
119.5000 18.6999
119.5100 18.7867
119.5200 15.6696
119.5300 17.4745
119.5400 17.8614
119.5500 19.5349
119.5600 15.0061
119.5700 20.2642
119.5800 21.9005
119.5900 19.0105
119.6000 14.8581
119.6100 18.8841
119.6200 16.5378
119.6300 18.5190
119.6400 20.0463
119.6500 11.5760
119.6600 20.7534
119.6700 17.5584
119.6800 17.3363
119.6900 15.6719
119.7000 17.0167
119.7100 13.1708
119.7200 19.3582
119.7300 16.0244
119.7400 20.1988
119.7500 17.9076
119.7600 12.6504
119.7700 16.4392
119.7800 13.0108
119.7900 16.8133
119.8000 19.8382
119.8100 9.4779
119.8200 25.1498
119.8300 24.4285
119.8400 13.7456
119.8500 15.6710
119.8600 16.8469
119.8700 11.3281
119.8800 15.4918
119.8900 17.3068
119.9000 13.4122
119.9100 12.0246
119.9200 10.2581
119.9300 19.6874
119.9400 18.6237
119.9500 18.3991
119.9600 15.6851
119.9700 18.3767
119.9800 17.9321
119.9900 17.3086
