#Collected Data-235
#Intensity_unit=counts
#Attenuator_coefficient=1.000000
40.0000 7.8954
40.0100 4.9881
40.0200 4.0940
40.0300 4.0949
40.0400 4.9538
40.0500 5.2391
40.0600 5.0859
40.0700 4.6393
40.0800 7.9004
40.0900 6.7430
40.1000 5.4426
40.1100 5.4600
40.1200 5.6707
40.1300 3.6990
40.1400 4.5113
40.1500 3.4406
40.1600 7.4326
40.1700 4.1042
40.1800 5.9975
40.1900 9.1675
40.2000 7.3857
40.2100 4.3294
40.2200 3.4488
40.2300 5.7922
40.2400 5.7184
40.2500 4.4118
40.2600 5.2541
40.2700 3.2191
40.2800 5.3237
40.2900 4.5615
40.3000 5.2276
40.3100 4.2204
40.3200 1.6564
40.3300 7.4991
40.3400 5.6426
40.3500 4.4645
40.3600 0.1473
40.3700 2.1973
40.3800 9.3389
40.3900 6.1143
40.4000 4.9150
40.4100 3.8941
40.4200 4.3771
40.4300 3.5317
40.4400 4.6904
40.4500 5.0895
40.4600 6.7566
40.4700 9.6213
40.4800 2.0566
40.4900 9.6029
40.5000 7.1552
40.5100 4.2665
40.5200 5.7034
40.5300 9.7403
40.5400 6.8618
40.5500 8.1549
40.5600 5.7296
40.5700 7.8053
40.5800 5.2233
40.5900 3.6808
40.6000 7.2545
40.6100 3.6067
40.6200 6.8270
40.6300 5.5844
40.6400 7.4088
40.6500 7.3887
40.6600 3.2845
40.6700 0.9041
40.6800 5.2126
40.6900 4.3365
40.7000 7.9705
40.7100 6.4345
40.7200 6.9461
40.7300 4.0877
40.7400 1.0776
40.7500 4.0403
40.7600 3.0452
40.7700 8.3381
40.7800 6.6881
40.7900 6.2217
40.8000 3.0590
40.8100 5.0740
40.8200 5.7651
40.8300 6.1840
40.8400 3.5123
40.8500 8.5238
40.8600 4.2881
40.8700 2.0576
40.8800 2.9680
40.8900 3.1645
40.9000 7.0734
40.9100 3.0338
40.9200 4.2741
40.9300 6.6881
40.9400 4.3774
40.9500 5.0254
40.9600 4.7222
40.9700 3.4418
40.9800 5.4729
40.9900 5.5686
41.0000 8.2996
41.0100 5.0498
41.0200 3.9626
41.0300 7.7233
41.0400 6.8997
41.0500 3.6613
41.0600 5.9819
41.0700 5.3177
41.0800 6.9139
41.0900 4.6230
41.1000 4.3029
41.1100 8.0684
41.1200 4.1532
41.1300 6.1690
41.1400 3.6985
41.1500 4.0715
41.1600 5.3528
41.1700 5.1731
41.1800 6.0275
41.1900 2.2993
41.2000 6.1512
41.2100 3.5914
41.2200 6.7340
41.2300 4.4554
41.2400 4.9818
41.2500 4.2975
41.2600 4.2586
41.2700 3.6775
41.2800 4.0006
41.2900 3.7285
41.3000 7.0294
41.3100 8.5567
41.3200 3.0951
41.3300 7.4822
41.3400 6.9506
41.3500 7.3489
41.3600 7.6272
41.3700 4.2066
41.3800 7.9046
41.3900 5.8837
41.4000 5.8827
41.4100 6.2995
41.4200 7.3454
41.4300 2.2541
41.4400 4.2132
41.4500 4.5091
41.4600 7.4216
41.4700 2.1127
41.4800 4.4819
41.4900 6.3626
41.5000 4.1113
41.5100 7.7682
41.5200 3.5538
41.5300 3.3681
41.5400 5.0994
41.5500 7.8050
41.5600 2.6115
41.5700 2.5440
41.5800 10.2536
41.5900 8.0940
41.6000 8.3004
41.6100 7.0872
41.6200 8.7134
41.6300 5.7411
41.6400 1.3256
41.6500 7.4148
41.6600 5.0250
41.6700 3.4784
41.6800 4.2075
41.6900 3.2836
41.7000 3.8488
41.7100 2.9669
41.7200 10.3590
41.7300 6.1782
41.7400 4.0341
41.7500 3.2819
41.7600 8.5422
41.7700 3.3827
41.7800 4.0307
41.7900 5.1398
41.8000 5.0925
41.8100 3.4374
41.8200 3.4217
41.8300 3.4187
41.8400 7.1204
41.8500 6.3064
41.8600 2.9640
41.8700 1.1828
41.8800 2.3709
41.8900 3.8238
41.9000 6.4989
41.9100 6.3198
41.9200 5.8656
41.9300 9.4704
41.9400 10.9435
41.9500 5.4800
41.9600 3.3711
41.9700 5.4837
41.9800 6.3764
41.9900 7.7165
42.0000 3.6888
42.0100 5.2703
42.0200 8.2670
42.0300 9.7469
42.0400 5.6912
42.0500 3.1618
42.0600 6.3025
42.0700 4.2708
42.0800 5.9680
42.0900 5.3029
42.1000 5.8937
42.1100 4.3420
42.1200 4.1697
42.1300 4.9621
42.1400 7.0494
42.1500 5.2819
42.1600 2.2420
42.1700 9.5807
42.1800 4.2463
42.1900 4.3286
42.2000 3.6459
42.2100 6.0220
42.2200 2.0466
42.2300 6.2479
42.2400 6.8852
42.2500 3.2214
42.2600 1.7198
42.2700 3.1931
42.2800 6.3709
42.2900 5.7499
42.3000 2.8887
42.3100 8.6720
42.3200 4.0372
42.3300 6.1568
42.3400 8.0396
42.3500 2.5266
42.3600 6.9195
42.3700 5.8195
42.3800 5.2715
42.3900 7.2913
42.4000 6.6624
42.4100 3.6691
42.4200 1.1709
42.4300 4.1942
42.4400 4.6228
42.4500 1.8335
42.4600 4.0081
42.4700 6.8845
42.4800 15.6762
42.4900 5.4220
42.5000 8.1108
42.5100 4.6383
42.5200 9.5448
42.5300 4.4706
42.5400 5.0109
42.5500 4.0851
42.5600 8.6908
42.5700 6.1692
42.5800 5.4589
42.5900 9.1767
42.6000 6.0286
42.6100 5.5575
42.6200 9.0646
42.6300 4.0450
42.6400 6.3013
42.6500 4.7070
42.6600 5.1826
42.6700 4.0149
42.6800 8.1226
42.6900 3.4829
42.7000 4.1726
42.7100 9.9315
42.7200 3.9358
42.7300 5.2651
42.7400 5.0806
42.7500 3.8202
42.7600 3.2796
42.7700 5.1212
42.7800 6.9193
42.7900 5.1549
42.8000 7.1852
42.8100 4.1643
42.8200 7.5679
42.8300 6.5640
42.8400 7.0865
42.8500 5.2273
42.8600 5.4449
42.8700 9.2818
42.8800 3.2844
42.8900 7.3204
42.9000 5.2303
42.9100 2.2109
42.9200 1.9732
42.9300 1.6712
42.9400 2.7291
42.9500 2.4654
42.9600 4.6807
42.9700 8.6990
42.9800 6.9296
42.9900 3.3434
43.0000 4.7201
43.0100 5.3730
43.0200 4.3350
43.0300 9.8521
43.0400 1.7629
43.0500 2.6742
43.0600 5.9600
43.0700 6.2661
43.0800 3.2110
43.0900 4.4226
43.1000 5.4470
43.1100 5.4135
43.1200 6.2606
43.1300 8.9712
43.1400 5.7758
43.1500 8.3131
43.1600 4.5211
43.1700 5.2431
43.1800 4.2951
43.1900 8.0685
43.2000 6.1796
43.2100 4.5649
43.2200 7.7269
43.2300 3.2019
43.2400 3.9203
43.2500 2.7005
43.2600 6.7195
43.2700 3.4742
43.2800 6.4440
43.2900 4.7867
43.3000 4.6077
43.3100 4.3584
43.3200 5.7131
43.3300 2.8393
43.3400 1.3632
43.3500 8.9675
43.3600 5.0701
43.3700 4.2447
43.3800 4.1711
43.3900 7.2067
43.4000 5.3716
43.4100 4.8909
43.4200 5.9457
43.4300 3.5435
43.4400 5.3042
43.4500 7.5147
43.4600 6.9519
43.4700 8.4872
43.4800 6.9126
43.4900 7.8364
43.5000 3.7253
43.5100 3.4540
43.5200 6.3578
43.5300 8.8632
43.5400 3.5969
43.5500 4.1524
43.5600 3.2172
43.5700 8.1051
43.5800 5.7764
43.5900 2.1078
43.6000 6.7404
43.6100 3.3379
43.6200 9.3297
43.6300 12.1689
43.6400 5.9687
43.6500 5.2548
43.6600 3.5290
43.6700 5.9751
43.6800 4.1454
43.6900 6.5679
43.7000 4.2966
43.7100 7.3117
43.7200 6.7850
43.7300 6.6703
43.7400 5.3996
43.7500 5.8422
43.7600 3.2053
43.7700 3.4147
43.7800 3.3116
43.7900 4.5981
43.8000 6.1928
43.8100 2.3157
43.8200 5.3463
43.8300 5.3436
43.8400 0.9854
43.8500 6.4062
43.8600 3.2902
43.8700 1.1661
43.8800 4.6549
43.8900 5.7217
43.9000 5.4658
43.9100 1.7492
43.9200 3.6829
43.9300 4.0824
43.9400 4.7284
43.9500 2.9250
43.9600 4.0037
43.9700 4.5853
43.9800 6.3667
43.9900 5.0000
44.0000 7.0114
44.0100 4.7472
44.0200 9.9682
44.0300 6.6924
44.0400 6.2328
44.0500 9.1458
44.0600 4.3781
44.0700 10.3420
44.0800 7.5925
44.0900 9.0259
44.1000 13.7906
44.1100 7.4018
44.1200 5.5920
44.1300 9.4476
44.1400 6.7651
44.1500 9.1210
44.1600 2.7973
44.1700 4.9048
44.1800 14.7006
44.1900 6.5005
44.2000 14.9271
44.2100 12.9354
44.2200 11.4309
44.2300 5.3014
44.2400 8.3449
44.2500 14.6460
44.2600 10.9119
44.2700 15.7826
44.2800 20.3581
44.2900 19.2336
44.3000 30.1840
44.3100 17.5124
44.3200 18.9933
44.3300 25.7121
44.3400 24.4334
44.3500 28.4591
44.3600 44.2058
44.3700 36.5291
44.3800 39.0556
44.3900 43.2448
44.4000 55.4928
44.4100 48.4190
44.4200 65.9270
44.4300 68.9686
44.4400 81.9909
44.4500 107.8333
44.4600 107.6899
44.4700 113.8352
44.4800 128.6105
44.4900 133.1753
44.5000 144.0913
44.5100 164.0211
44.5200 159.7118
44.5300 174.0718
44.5400 173.6756
44.5500 201.6947
44.5600 187.1133
44.5700 180.7930
44.5800 188.3913
44.5900 212.6443
44.6000 208.8772
44.6100 202.4810
44.6200 198.6292
44.6300 176.2199
44.6400 170.0621
44.6500 153.3087
44.6600 144.9180
44.6700 128.9128
44.6800 120.2502
44.6900 93.9728
44.7000 107.3823
44.7100 90.1102
44.7200 58.0071
44.7300 66.7456
44.7400 70.7157
44.7500 53.8223
44.7600 49.1955
44.7700 37.1589
44.7800 50.1089
44.7900 27.5954
44.8000 29.2405
44.8100 34.7735
44.8200 27.8620
44.8300 20.1970
44.8400 25.8393
44.8500 19.4685
44.8600 20.6032
44.8700 15.3707
44.8800 11.6648
44.8900 10.4368
44.9000 9.0171
44.9100 9.0361
44.9200 15.2972
44.9300 12.7202
44.9400 14.1400
44.9500 13.9592
44.9600 8.9850
44.9700 8.1550
44.9800 14.2845
44.9900 7.5109
45.0000 5.7292
45.0100 9.6562
45.0200 10.3447
45.0300 8.3524
45.0400 9.1585
45.0500 3.7103
45.0600 6.5864
45.0700 5.0098
45.0800 7.7754
45.0900 3.6030
45.1000 8.2150
45.1100 10.9080
45.1200 8.3289
45.1300 10.1747
45.1400 5.4266
45.1500 5.1070
45.1600 4.9317
45.1700 3.9953
45.1800 6.1826
45.1900 6.5208
45.2000 4.9796
45.2100 7.2924
45.2200 12.2609
45.2300 4.4053
45.2400 6.2902
45.2500 3.0343
45.2600 3.9027
45.2700 5.2626
45.2800 2.3934
45.2900 5.5442
45.3000 4.1191
45.3100 2.1170
45.3200 5.5364
45.3300 8.3756
45.3400 7.1821
45.3500 8.7696
45.3600 2.3199
45.3700 3.0411
45.3800 5.0775
45.3900 7.2718
45.4000 1.7487
45.4100 6.5054
45.4200 5.5929
45.4300 8.1653
45.4400 6.1801
45.4500 6.5299
45.4600 8.0835
45.4700 3.2311
45.4800 7.1014
45.4900 4.0425
45.5000 6.9022
45.5100 3.7239
45.5200 8.1192
45.5300 4.7212
45.5400 10.8123
45.5500 9.6408
45.5600 4.6284
45.5700 5.9983
45.5800 7.2877
45.5900 4.5546
45.6000 4.4661
45.6100 4.8205
45.6200 4.5768
45.6300 2.0842
45.6400 7.3901
45.6500 8.2711
45.6600 7.4433
45.6700 0.1678
45.6800 5.0806
45.6900 4.8888
45.7000 5.9359
45.7100 6.3501
45.7200 2.8603
45.7300 2.5378
45.7400 4.3590
45.7500 6.2246
45.7600 4.2311
45.7700 5.1416
45.7800 2.0516
45.7900 3.3212
45.8000 6.6646
45.8100 6.7029
45.8200 4.3825
45.8300 4.9233
45.8400 6.4144
45.8500 3.5566
45.8600 5.3724
45.8700 1.3460
45.8800 5.1969
45.8900 6.3349
45.9000 6.8391
45.9100 5.4291
45.9200 6.7600
45.9300 4.1427
45.9400 7.1312
45.9500 4.1269
45.9600 4.9984
45.9700 3.3104
45.9800 2.1186
45.9900 5.9614
46.0000 7.2642
46.0100 2.8481
46.0200 4.9513
46.0300 4.5092
46.0400 3.2682
46.0500 6.6109
46.0600 4.6041
46.0700 3.1370
46.0800 8.3192
46.0900 3.1516
46.1000 4.0539
46.1100 6.1388
46.1200 3.7664
46.1300 6.6075
46.1400 3.7267
46.1500 6.1481
46.1600 3.0513
46.1700 4.9135
46.1800 8.6930
46.1900 1.7677
46.2000 3.0062
46.2100 2.3854
46.2200 6.5154
46.2300 9.8538
46.2400 7.1514
46.2500 4.6519
46.2600 3.4126
46.2700 6.2801
46.2800 4.5468
46.2900 2.9973
46.3000 5.0903
46.3100 5.2921
46.3200 4.2635
46.3300 3.7365
46.3400 4.7509
46.3500 5.4621
46.3600 3.6865
46.3700 3.1025
46.3800 5.1873
46.3900 3.0834
46.4000 5.3305
46.4100 5.0395
46.4200 0.2859
46.4300 2.8672
46.4400 6.8295
46.4500 3.4176
46.4600 4.1650
46.4700 4.6945
46.4800 6.4292
46.4900 4.1937
46.5000 6.4355
46.5100 7.1154
46.5200 6.8125
46.5300 6.1610
46.5400 4.1045
46.5500 5.8441
46.5600 7.1830
46.5700 7.5850
46.5800 5.6286
46.5900 4.5118
46.6000 4.9407
46.6100 6.2567
46.6200 3.3788
46.6300 8.2707
46.6400 9.0371
46.6500 4.8829
46.6600 7.5353
46.6700 3.7586
46.6800 2.4082
46.6900 7.9831
46.7000 3.2465
46.7100 2.0617
46.7200 6.0909
46.7300 3.1840
46.7400 5.1070
46.7500 4.4582
46.7600 6.7155
46.7700 5.5808
46.7800 6.7242
46.7900 6.6358
46.8000 6.2871
46.8100 3.0095
46.8200 5.9347
46.8300 2.1441
46.8400 5.3749
46.8500 6.4718
46.8600 6.1532
46.8700 1.5211
46.8800 2.5252
46.8900 4.5965
46.9000 1.3759
46.9100 6.2671
46.9200 8.1674
46.9300 10.2178
46.9400 4.0897
46.9500 4.5768
46.9600 6.7792
46.9700 6.4621
46.9800 3.1457
46.9900 9.9452
47.0000 2.4983
47.0100 4.7968
47.0200 6.1368
47.0300 9.1408
47.0400 4.3774
47.0500 2.9946
47.0600 2.8929
47.0700 2.1893
47.0800 7.3850
47.0900 1.7258
47.1000 3.6014
47.1100 2.8288
47.1200 2.6775
47.1300 4.6289
47.1400 5.5907
47.1500 3.0389
47.1600 2.2188
47.1700 4.1805
47.1800 5.2015
47.1900 2.1437
47.2000 4.1094
47.2100 7.2783
47.2200 5.6892
47.2300 4.6355
47.2400 4.8923
47.2500 3.2217
47.2600 6.1196
47.2700 1.1115
47.2800 2.6551
47.2900 4.9975
47.3000 5.4379
47.3100 6.9751
47.3200 5.7224
47.3300 2.9928
47.3400 8.7531
47.3500 3.3653
47.3600 5.3423
47.3700 4.5854
47.3800 8.7178
47.3900 1.9864
47.4000 4.8758
47.4100 4.2524
47.4200 5.2068
47.4300 8.4582
47.4400 7.2520
47.4500 5.5162
47.4600 4.3131
47.4700 3.0697
47.4800 1.5712
47.4900 5.4996
47.5000 8.2559
47.5100 3.8125
47.5200 4.7735
47.5300 4.3103
47.5400 4.1827
47.5500 4.7165
47.5600 5.1713
47.5700 3.4246
47.5800 2.3132
47.5900 4.7411
47.6000 3.2036
47.6100 3.6274
47.6200 4.6489
47.6300 4.2735
47.6400 2.9148
47.6500 4.5400
47.6600 5.3848
47.6700 4.1722
47.6800 5.0112
47.6900 2.6623
47.7000 7.3189
47.7100 2.5805
47.7200 3.6804
47.7300 4.7639
47.7400 5.1857
47.7500 4.2230
47.7600 9.0472
47.7700 2.5547
47.7800 3.2992
47.7900 8.4044
47.8000 5.3255
47.8100 4.6981
47.8200 7.3012
47.8300 2.6711
47.8400 2.2231
47.8500 4.0596
47.8600 3.8391
47.8700 4.1720
47.8800 7.9702
47.8900 3.4454
47.9000 6.2817
47.9100 5.0447
47.9200 4.4976
47.9300 4.3084
47.9400 4.5821
47.9500 6.1147
47.9600 3.6055
47.9700 2.1486
47.9800 3.1913
47.9900 2.9886
48.0000 2.0699
48.0100 1.4292
48.0200 6.0310
48.0300 4.1119
48.0400 5.5919
48.0500 5.4909
48.0600 4.6649
48.0700 2.4493
48.0800 4.8861
48.0900 5.7851
48.1000 4.2050
48.1100 3.9802
48.1200 1.6826
48.1300 6.1777
48.1400 6.9614
48.1500 5.1420
48.1600 2.1790
48.1700 4.4254
48.1800 2.7803
48.1900 6.5698
48.2000 3.6456
48.2100 3.0482
48.2200 4.0075
48.2300 1.2989
48.2400 3.0933
48.2500 4.0456
48.2600 4.3280
48.2700 6.5368
48.2800 1.8401
48.2900 4.9774
48.3000 4.4932
48.3100 2.1228
48.3200 7.2846
48.3300 4.1793
48.3400 4.2663
48.3500 4.4213
48.3600 3.8351
48.3700 8.3690
48.3800 4.5022
48.3900 4.1708
48.4000 3.7350
48.4100 4.4780
48.4200 6.2001
48.4300 7.8803
48.4400 3.0793
48.4500 7.0898
48.4600 4.8813
48.4700 1.9602
48.4800 5.0723
48.4900 4.1496
48.5000 3.9523
48.5100 5.2986
48.5200 3.2761
48.5300 1.1957
48.5400 2.2694
48.5500 4.7230
48.5600 2.4506
48.5700 4.6635
48.5800 1.6316
48.5900 6.2390
48.6000 7.2818
48.6100 2.4924
48.6200 1.2893
48.6300 5.0550
48.6400 7.4911
48.6500 8.1866
48.6600 7.2781
48.6700 3.9168
48.6800 2.2515
48.6900 4.9586
48.7000 4.3212
48.7100 7.3528
48.7200 4.1629
48.7300 9.9616
48.7400 4.4134
48.7500 4.3095
48.7600 4.3880
48.7700 2.5514
48.7800 4.4283
48.7900 1.5943
48.8000 2.7354
48.8100 2.5528
48.8200 2.4632
48.8300 3.1563
48.8400 4.9281
48.8500 3.1953
48.8600 3.3111
48.8700 3.9886
48.8800 5.4808
48.8900 3.0333
48.9000 6.0119
48.9100 6.1860
48.9200 4.6421
48.9300 6.0280
48.9400 3.4598
48.9500 3.2107
48.9600 9.1732
48.9700 1.7341
48.9800 3.6281
48.9900 2.8241
49.0000 6.6997
49.0100 7.0494
49.0200 2.4968
49.0300 2.0225
49.0400 3.9466
49.0500 2.9913
49.0600 8.6475
49.0700 5.0271
49.0800 7.4504
49.0900 3.7854
49.1000 4.8978
49.1100 8.9171
49.1200 2.6965
49.1300 4.2499
49.1400 1.3797
49.1500 5.9409
49.1600 6.1975
49.1700 3.2069
49.1800 3.5353
49.1900 5.5688
49.2000 3.5131
49.2100 3.6981
49.2200 4.3253
49.2300 4.9220
49.2400 3.0569
49.2500 2.2183
49.2600 3.9868
49.2700 3.3913
49.2800 6.7545
49.2900 6.9064
49.3000 4.6295
49.3100 4.2573
49.3200 1.9309
49.3300 2.2013
49.3400 4.4381
49.3500 3.1235
49.3600 3.2281
49.3700 3.0463
49.3800 2.0510
49.3900 4.2906
49.4000 4.8190
49.4100 2.9467
49.4200 4.6379
49.4300 4.8183
49.4400 2.3127
49.4500 8.7625
49.4600 4.1105
49.4700 5.9130
49.4800 5.2819
49.4900 6.0238
49.5000 3.9438
49.5100 9.1578
49.5200 1.6555
49.5300 7.5976
49.5400 4.6649
49.5500 3.6194
49.5600 3.0642
49.5700 2.5063
49.5800 4.9474
49.5900 9.8263
49.6000 6.8939
49.6100 4.7623
49.6200 7.5032
49.6300 5.5049
49.6400 4.2903
49.6500 5.6598
49.6600 4.1097
49.6700 4.4671
49.6800 5.8339
49.6900 8.1771
49.7000 4.3142
49.7100 2.8476
49.7200 1.9641
49.7300 6.4995
49.7400 4.7311
49.7500 5.1267
49.7600 2.7444
49.7700 3.6750
49.7800 1.7431
49.7900 3.2042
49.8000 4.3064
49.8100 3.8867
49.8200 1.5153
49.8300 9.7622
49.8400 4.1694
49.8500 8.5257
49.8600 6.5903
49.8700 6.0981
49.8800 7.1046
49.8900 6.8313
49.9000 4.4745
49.9100 5.9238
49.9200 1.2762
49.9300 2.1567
49.9400 2.1211
49.9500 2.1439
49.9600 2.1181
49.9700 3.4748
49.9800 3.8772
49.9900 5.8985
50.0000 3.3904
50.0100 2.4433
50.0200 5.0851
50.0300 3.3395
50.0400 3.9919
50.0500 6.1086
50.0600 2.7421
50.0700 2.7077
50.0800 4.9950
50.0900 3.3141
50.1000 3.3725
50.1100 6.1159
50.1200 6.4585
50.1300 8.8555
50.1400 6.1672
50.1500 6.4922
50.1600 1.6050
50.1700 1.5380
50.1800 4.6396
50.1900 3.2088
50.2000 3.3619
50.2100 3.0399
50.2200 3.9973
50.2300 6.0842
50.2400 0.4068
50.2500 6.4697
50.2600 6.4155
50.2700 5.0692
50.2800 3.1481
50.2900 4.5423
50.3000 3.5971
50.3100 3.8933
50.3200 0.0000
50.3300 0.1105
50.3400 4.9316
50.3500 5.5968
50.3600 2.2807
50.3700 5.7891
50.3800 8.0748
50.3900 6.7397
50.4000 7.9924
50.4100 8.0971
50.4200 4.8837
50.4300 5.3914
50.4400 1.9545
50.4500 2.7655
50.4600 4.3339
50.4700 3.8206
50.4800 6.3043
50.4900 5.8150
50.5000 5.6517
50.5100 4.9376
50.5200 2.3302
50.5300 4.0965
50.5400 5.4974
50.5500 8.0056
50.5600 4.8381
50.5700 3.2869
50.5800 7.4975
50.5900 10.6920
50.6000 3.2177
50.6100 7.1155
50.6200 5.4960
50.6300 6.2130
50.6400 7.2030
50.6500 5.0361
50.6600 2.2761
50.6700 4.5531
50.6800 2.4247
50.6900 3.5236
50.7000 6.8678
50.7100 2.6493
50.7200 4.9813
50.7300 3.7127
50.7400 5.2397
50.7500 5.3025
50.7600 2.1169
50.7700 2.9540
50.7800 2.1487
50.7900 4.0655
50.8000 10.5890
50.8100 6.0377
50.8200 6.7201
50.8300 5.0158
50.8400 4.1474
50.8500 6.0349
50.8600 9.4899
50.8700 2.5209
50.8800 9.4969
50.8900 2.1836
50.9000 1.3563
50.9100 2.0983
50.9200 3.6410
50.9300 1.2158
50.9400 5.2588
50.9500 4.3514
50.9600 2.2765
50.9700 4.3589
50.9800 7.2978
50.9900 8.1937
51.0000 3.3321
51.0100 7.5728
51.0200 3.2336
51.0300 2.9666
51.0400 5.4462
51.0500 2.4107
51.0600 3.0540
51.0700 3.0797
51.0800 2.0630
51.0900 7.2174
51.1000 2.9548
51.1100 3.5404
51.1200 5.4644
51.1300 3.9112
51.1400 8.4889
51.1500 5.7113
51.1600 5.1115
51.1700 1.2181
51.1800 4.2368
51.1900 3.0449
51.2000 3.8441
51.2100 3.3732
51.2200 3.7218
51.2300 3.1950
51.2400 6.1780
51.2500 6.8322
51.2600 4.2492
51.2700 7.8625
51.2800 4.5591
51.2900 1.1666
51.3000 2.6511
51.3100 4.1054
51.3200 9.5206
51.3300 3.4511
51.3400 4.4290
51.3500 3.6706
51.3600 3.1655
51.3700 4.3379
51.3800 1.2735
51.3900 4.2951
51.4000 5.2942
51.4100 6.4369
51.4200 2.7582
51.4300 4.2732
51.4400 4.5495
51.4500 1.3986
51.4600 9.4438
51.4700 1.1936
51.4800 5.7982
51.4900 4.1325
51.5000 3.3880
51.5100 3.0423
51.5200 3.1601
51.5300 6.7905
51.5400 7.2477
51.5500 7.7214
51.5600 3.6022
51.5700 3.9013
51.5800 2.6815
51.5900 3.1255
51.6000 5.1428
51.6100 3.2026
51.6200 9.8350
51.6300 6.1468
51.6400 3.7387
51.6500 4.2252
51.6600 8.2114
51.6700 7.9408
51.6800 5.7477
51.6900 6.7361
51.7000 3.3824
51.7100 2.1953
51.7200 2.2148
51.7300 3.1574
51.7400 7.4641
51.7500 3.9241
51.7600 4.6303
51.7700 7.3564
51.7800 2.4030
51.7900 2.0148
51.8000 5.2301
51.8100 5.1720
51.8200 6.7790
51.8300 3.1084
51.8400 2.8482
51.8500 5.4587
51.8600 5.5863
51.8700 5.7421
51.8800 2.8707
51.8900 3.4375
51.9000 3.7303
51.9100 6.1099
51.9200 3.1910
51.9300 5.4944
51.9400 6.7452
51.9500 5.0966
51.9600 4.0096
51.9700 6.3421
51.9800 4.1691
51.9900 0.7084
52.0000 5.6375
52.0100 4.1943
52.0200 8.0851
52.0300 7.2191
52.0400 7.7068
52.0500 5.8703
52.0600 2.8057
52.0700 4.8954
52.0800 6.1079
52.0900 6.0322
52.1000 4.5150
52.1100 5.6298
52.1200 5.7569
52.1300 4.8628
52.1400 6.7881
52.1500 5.2779
52.1600 7.6247
52.1700 6.6109
52.1800 6.3641
52.1900 4.7693
52.2000 0.9212
52.2100 2.8839
52.2200 2.1643
52.2300 2.0035
52.2400 1.1231
52.2500 3.1790
52.2600 0.2609
52.2700 3.9884
52.2800 2.7341
52.2900 0.5817
52.3000 6.4985
52.3100 5.0091
52.3200 4.0360
52.3300 4.1531
52.3400 4.0021
52.3500 4.2818
52.3600 4.8883
52.3700 3.1836
52.3800 4.8024
52.3900 4.2575
52.4000 9.5561
52.4100 4.8018
52.4200 4.2282
52.4300 4.3121
52.4400 6.0888
52.4500 4.7554
52.4600 2.9629
52.4700 3.6732
52.4800 4.2386
52.4900 3.2687
52.5000 7.7264
52.5100 6.2576
52.5200 9.2038
52.5300 3.3614
52.5400 6.3300
52.5500 5.3014
52.5600 4.1771
52.5700 4.5796
52.5800 5.8978
52.5900 3.8174
52.6000 3.6304
52.6100 5.5199
52.6200 3.1761
52.6300 4.1374
52.6400 6.2687
52.6500 5.2776
52.6600 6.0059
52.6700 4.5646
52.6800 5.5546
52.6900 10.2756
52.7000 7.4854
52.7100 3.0063
52.7200 4.7420
52.7300 9.5048
52.7400 5.7400
52.7500 4.9822
52.7600 3.1878
52.7700 4.7107
52.7800 4.4433
52.7900 4.9995
52.8000 4.0439
52.8100 1.4173
52.8200 2.0079
52.8300 2.1047
52.8400 7.6802
52.8500 3.2642
52.8600 4.0792
52.8700 1.1695
52.8800 3.3064
52.8900 4.2261
52.9000 3.5058
52.9100 4.6653
52.9200 6.5890
52.9300 3.8106
52.9400 2.9230
52.9500 2.1620
52.9600 2.0688
52.9700 5.9677
52.9800 5.0724
52.9900 3.4892
53.0000 4.0080
53.0100 4.4697
53.0200 4.8367
53.0300 5.8605
53.0400 4.0305
53.0500 6.2148
53.0600 3.8456
53.0700 2.1268
53.0800 5.0992
53.0900 6.3748
53.1000 4.8385
53.1100 3.0320
53.1200 8.1589
53.1300 7.6161
53.1400 4.4364
53.1500 1.2832
53.1600 1.5176
53.1700 3.0298
53.1800 7.4389
53.1900 8.2601
53.2000 5.2117
53.2100 2.7085
53.2200 6.8872
53.2300 5.2209
53.2400 4.4138
53.2500 4.5959
53.2600 4.3437
53.2700 3.0153
53.2800 6.8470
53.2900 4.0084
53.3000 3.2995
53.3100 3.7633
53.3200 2.5561
53.3300 3.4504
53.3400 3.2684
53.3500 4.2445
53.3600 3.2441
53.3700 6.5336
53.3800 8.0369
53.3900 5.6574
53.4000 4.2515
53.4100 6.5608
53.4200 1.3227
53.4300 6.6554
53.4400 4.1853
53.4500 5.1406
53.4600 2.5726
53.4700 4.7765
53.4800 4.2323
53.4900 5.1331
53.5000 5.3020
53.5100 5.1545
53.5200 2.4194
53.5300 3.8342
53.5400 2.3815
53.5500 2.3238
53.5600 4.6512
53.5700 2.5168
53.5800 5.1239
53.5900 2.7356
53.6000 3.2516
53.6100 5.2477
53.6200 4.1601
53.6300 4.1413
53.6400 2.7174
53.6500 3.0173
53.6600 2.5213
53.6700 3.3092
53.6800 6.3710
53.6900 2.2025
53.7000 6.0970
53.7100 4.3716
53.7200 6.2022
53.7300 4.5880
53.7400 5.6849
53.7500 2.7925
53.7600 7.5654
53.7700 2.6346
53.7800 4.7212
53.7900 2.2581
53.8000 5.9093
53.8100 6.6470
53.8200 6.3942
53.8300 3.8308
53.8400 5.3691
53.8500 5.5212
53.8600 2.0770
53.8700 6.1778
53.8800 4.1771
53.8900 8.7457
53.9000 3.4171
53.9100 5.3153
53.9200 8.3350
53.9300 4.2235
53.9400 1.0216
53.9500 4.6686
53.9600 4.2848
53.9700 1.6523
53.9800 4.4659
53.9900 6.9218
54.0000 3.3277
54.0100 5.2514
54.0200 4.2423
54.0300 8.2772
54.0400 6.4920
54.0500 4.9194
54.0600 3.8325
54.0700 4.2379
54.0800 3.8122
54.0900 3.2554
54.1000 3.6367
54.1100 6.0396
54.1200 4.5210
54.1300 3.6031
54.1400 2.1618
54.1500 5.2252
54.1600 7.0097
54.1700 3.9831
54.1800 5.6041
54.1900 3.7870
54.2000 3.1021
54.2100 5.2144
54.2200 1.9664
54.2300 4.3558
54.2400 2.5875
54.2500 1.1208
54.2600 2.5073
54.2700 6.4438
54.2800 6.4700
54.2900 6.2391
54.3000 6.1933
54.3100 6.5770
54.3200 6.0486
54.3300 2.1733
54.3400 2.8687
54.3500 4.2032
54.3600 6.0969
54.3700 4.1880
54.3800 0.7825
54.3900 2.8086
54.4000 5.7040
54.4100 1.5515
54.4200 5.5796
54.4300 5.1354
54.4400 6.0039
54.4500 5.5537
54.4600 3.1354
54.4700 3.8805
54.4800 4.1202
54.4900 8.9330
54.5000 10.8322
54.5100 4.8517
54.5200 5.7520
54.5300 5.4969
54.5400 1.2833
54.5500 0.9897
54.5600 0.0000
54.5700 8.1846
54.5800 6.4704
54.5900 4.3271
54.6000 6.4698
54.6100 7.3720
54.6200 7.8949
54.6300 4.3231
54.6400 4.2449
54.6500 2.0755
54.6600 3.9763
54.6700 4.2257
54.6800 3.4883
54.6900 5.2780
54.7000 2.9799
54.7100 6.6126
54.7200 6.2083
54.7300 7.2948
54.7400 2.5413
54.7500 2.1378
54.7600 7.0091
54.7700 4.3906
54.7800 2.1546
54.7900 2.1029
54.8000 3.0412
54.8100 3.0489
54.8200 2.6840
54.8300 5.1538
54.8400 4.4557
54.8500 4.4380
54.8600 5.7498
54.8700 5.9266
54.8800 5.0810
54.8900 1.9937
54.9000 3.1871
54.9100 6.9659
54.9200 5.5366
54.9300 2.2707
54.9400 4.2984
54.9500 8.2840
54.9600 7.8558
54.9700 2.5981
54.9800 5.0416
54.9900 6.2736
55.0000 6.5457
55.0100 6.7437
55.0200 5.0810
55.0300 6.1500
55.0400 4.1101
55.0500 6.2408
55.0600 3.2899
55.0700 5.6337
55.0800 5.6587
55.0900 3.2296
55.1000 2.3788
55.1100 11.1060
55.1200 5.7965
55.1300 5.2980
55.1400 5.2557
55.1500 3.6628
55.1600 2.3476
55.1700 1.7651
55.1800 5.0291
55.1900 3.9423
55.2000 3.2210
55.2100 7.0733
55.2200 4.9860
55.2300 6.5939
55.2400 3.4208
55.2500 4.1946
55.2600 4.4022
55.2700 5.1516
55.2800 2.1019
55.2900 1.9692
55.3000 6.7818
55.3100 1.3738
55.3200 6.2421
55.3300 2.9500
55.3400 0.7439
55.3500 2.3574
55.3600 2.6771
55.3700 4.4891
55.3800 1.1098
55.3900 1.2556
55.4000 4.8497
55.4100 5.1516
55.4200 4.2624
55.4300 3.3062
55.4400 8.5232
55.4500 7.4091
55.4600 4.5297
55.4700 4.8474
55.4800 5.1012
55.4900 4.3238
55.5000 2.2754
55.5100 5.8706
55.5200 8.2694
55.5300 4.4046
55.5400 5.3097
55.5500 3.9089
55.5600 5.6662
55.5700 1.5606
55.5800 5.7891
55.5900 2.6042
55.6000 3.4003
55.6100 2.0632
55.6200 7.0622
55.6300 4.1775
55.6400 6.7756
55.6500 7.8468
55.6600 2.9018
55.6700 5.4254
55.6800 2.6724
55.6900 5.3960
55.7000 7.4593
55.7100 9.2032
55.7200 4.0399
55.7300 6.4352
55.7400 4.9680
55.7500 3.2814
55.7600 3.9698
55.7700 2.8108
55.7800 2.7368
55.7900 5.1585
55.8000 2.4456
55.8100 2.0539
55.8200 2.0010
55.8300 4.0200
55.8400 6.0561
55.8500 1.6278
55.8600 6.5282
55.8700 2.1399
55.8800 3.0711
55.8900 4.3483
55.9000 4.7942
55.9100 4.3128
55.9200 5.2386
55.9300 4.2136
55.9400 5.8459
55.9500 4.1517
55.9600 3.7622
55.9700 3.6330
55.9800 6.1228
55.9900 5.0574
56.0000 4.0691
56.0100 4.6284
56.0200 3.2973
56.0300 5.3680
56.0400 5.1033
56.0500 4.8463
56.0600 3.3842
56.0700 3.7851
56.0800 5.0514
56.0900 4.3835
56.1000 5.2635
56.1100 2.7163
56.1200 1.8576
56.1300 6.1789
56.1400 2.2314
56.1500 0.9947
56.1600 1.1805
56.1700 3.3834
56.1800 3.0907
56.1900 2.5631
56.2000 2.3531
56.2100 6.3190
56.2200 2.4101
56.2300 5.3952
56.2400 5.2132
56.2500 4.4514
56.2600 7.0487
56.2700 4.9556
56.2800 4.9057
56.2900 7.8384
56.3000 3.9826
56.3100 5.6427
56.3200 7.0918
56.3300 4.0761
56.3400 4.0287
56.3500 0.2069
56.3600 3.7975
56.3700 5.3778
56.3800 5.2152
56.3900 7.9226
56.4000 6.2247
56.4100 8.3656
56.4200 5.2474
56.4300 4.5160
56.4400 4.8086
56.4500 5.3595
56.4600 3.1075
56.4700 2.1728
56.4800 3.1354
56.4900 4.0135
56.5000 3.5953
56.5100 5.7588
56.5200 6.8233
56.5300 4.6423
56.5400 2.8410
56.5500 2.0309
56.5600 4.6477
56.5700 3.2844
56.5800 3.2470
56.5900 3.8425
56.6000 2.3115
56.6100 3.1795
56.6200 4.3485
56.6300 8.3211
56.6400 6.6944
56.6500 3.6502
56.6600 2.5709
56.6700 2.7291
56.6800 11.4030
56.6900 3.2088
56.7000 1.8172
56.7100 1.3026
56.7200 5.0031
56.7300 3.9731
56.7400 1.0840
56.7500 3.7524
56.7600 6.6704
56.7700 6.5449
56.7800 5.2646
56.7900 6.0166
56.8000 5.3898
56.8100 6.8062
56.8200 9.5258
56.8300 5.6828
56.8400 8.2902
56.8500 4.8172
56.8600 5.2611
56.8700 7.2482
56.8800 3.6515
56.8900 6.1009
56.9000 3.3223
56.9100 5.3499
56.9200 3.7964
56.9300 6.5373
56.9400 3.2715
56.9500 4.8314
56.9600 5.0900
56.9700 9.4872
56.9800 5.0753
56.9900 5.1374
57.0000 4.3642
57.0100 5.0029
57.0200 4.4441
57.0300 6.5596
57.0400 1.8504
57.0500 4.6662
57.0600 2.5445
57.0700 3.9802
57.0800 3.7586
57.0900 4.2314
57.1000 7.0303
57.1100 2.0550
57.1200 3.0782
57.1300 4.0267
57.1400 2.0088
57.1500 2.9233
57.1600 6.2704
57.1700 3.6091
57.1800 6.5681
57.1900 6.6613
57.2000 2.5168
57.2100 2.9394
57.2200 9.3652
57.2300 5.8222
57.2400 3.3763
57.2500 5.3871
57.2600 4.3541
57.2700 8.2422
57.2800 5.7742
57.2900 5.8738
57.3000 5.4991
57.3100 1.4481
57.3200 2.0690
57.3300 7.2469
57.3400 8.7328
57.3500 3.3668
57.3600 2.4350
57.3700 7.6169
57.3800 6.3721
57.3900 8.8861
57.4000 3.8033
57.4100 5.3788
57.4200 4.1505
57.4300 3.0502
57.4400 4.3972
57.4500 3.3957
57.4600 5.1857
57.4700 7.8533
57.4800 7.8846
57.4900 7.2318
57.5000 4.4451
57.5100 2.9796
57.5200 2.1199
57.5300 5.2322
57.5400 4.8892
57.5500 1.2993
57.5600 6.8572
57.5700 5.2311
57.5800 2.8390
57.5900 1.0939
57.6000 5.5137
57.6100 3.7558
57.6200 2.0524
57.6300 2.9872
57.6400 8.8959
57.6500 3.1411
57.6600 3.0232
57.6700 1.9901
57.6800 4.2834
57.6900 8.1968
57.7000 3.5849
57.7100 5.2935
57.7200 5.1728
57.7300 6.4292
57.7400 4.2792
57.7500 3.0884
57.7600 3.7062
57.7700 1.5746
57.7800 4.1528
57.7900 5.2727
57.8000 6.9188
57.8100 3.3018
57.8200 1.8370
57.8300 2.0848
57.8400 7.9562
57.8500 3.2956
57.8600 5.3870
57.8700 3.8223
57.8800 2.7018
57.8900 2.3534
57.9000 4.6288
57.9100 2.6324
57.9200 5.1797
57.9300 6.5629
57.9400 2.5366
57.9500 4.0738
57.9600 1.6788
57.9700 7.3317
57.9800 6.7754
57.9900 3.2935
58.0000 3.0453
58.0100 4.1312
58.0200 2.0805
58.0300 1.0808
58.0400 4.0686
58.0500 3.0992
58.0600 2.2292
58.0700 5.0210
58.0800 3.0797
58.0900 5.4358
58.1000 2.2104
58.1100 3.6674
58.1200 4.0120
58.1300 3.0121
58.1400 3.7496
58.1500 2.2446
58.1600 6.0325
58.1700 4.1283
58.1800 3.2980
58.1900 4.1785
58.2000 5.4009
58.2100 3.2859
58.2200 5.1949
58.2300 3.0496
58.2400 1.3782
58.2500 4.5626
58.2600 5.0614
58.2700 5.2994
58.2800 0.0000
58.2900 1.1796
58.3000 4.9237
58.3100 5.5776
58.3200 6.9071
58.3300 1.4585
58.3400 4.5545
58.3500 6.3467
58.3600 6.4463
58.3700 2.4607
58.3800 1.2363
58.3900 3.0907
58.4000 3.8364
58.4100 6.2031
58.4200 4.8674
58.4300 4.1257
58.4400 3.1170
58.4500 5.9546
58.4600 5.5061
58.4700 6.6854
58.4800 4.2824
58.4900 3.1880
58.5000 4.8431
58.5100 0.5366
58.5200 3.1899
58.5300 3.9550
58.5400 4.9804
58.5500 4.9009
58.5600 3.7771
58.5700 5.0963
58.5800 5.3537
58.5900 5.3427
58.6000 3.2281
58.6100 6.2502
58.6200 5.3602
58.6300 5.6633
58.6400 5.8091
58.6500 3.7252
58.6600 5.3516
58.6700 6.0772
58.6800 4.9501
58.6900 2.2890
58.7000 3.2359
58.7100 3.0949
58.7200 2.3530
58.7300 6.7891
58.7400 4.4047
58.7500 5.3900
58.7600 4.9858
58.7700 4.2028
58.7800 3.9650
58.7900 2.3093
58.8000 5.0474
58.8100 3.0570
58.8200 1.8806
58.8300 3.3869
58.8400 4.1979
58.8500 2.3604
58.8600 4.3420
58.8700 5.1949
58.8800 3.4672
58.8900 5.1721
58.9000 2.1842
58.9100 3.0370
58.9200 3.0802
58.9300 2.9506
58.9400 1.4149
58.9500 3.2310
58.9600 4.4108
58.9700 7.6977
58.9800 4.3744
58.9900 7.0874
59.0000 5.4685
59.0100 0.0000
59.0200 4.0190
59.0300 3.7407
59.0400 8.4098
59.0500 2.8758
59.0600 3.8769
59.0700 2.5028
59.0800 3.3678
59.0900 6.6202
59.1000 4.1429
59.1100 3.9456
59.1200 6.1913
59.1300 4.1884
59.1400 3.8554
59.1500 7.2407
59.1600 2.8261
59.1700 8.7011
59.1800 5.7085
59.1900 5.5884
59.2000 0.6306
59.2100 6.4345
59.2200 8.4113
59.2300 2.7569
59.2400 3.5391
59.2500 4.4387
59.2600 1.6613
59.2700 6.2029
59.2800 1.6876
59.2900 2.0081
59.3000 5.6582
59.3100 1.6496
59.3200 1.1607
59.3300 2.6310
59.3400 1.9470
59.3500 2.1297
59.3600 4.4040
59.3700 5.9296
59.3800 4.9054
59.3900 2.0623
59.4000 1.7838
59.4100 2.4277
59.4200 3.7618
59.4300 6.3113
59.4400 6.2646
59.4500 8.3033
59.4600 4.4907
59.4700 1.4123
59.4800 7.5222
59.4900 2.6948
59.5000 5.2245
59.5100 5.7195
59.5200 4.0975
59.5300 4.6520
59.5400 5.2372
59.5500 5.2053
59.5600 5.1571
59.5700 4.1692
59.5800 2.5872
59.5900 6.3226
59.6000 10.0746
59.6100 4.7335
59.6200 2.1043
59.6300 3.3967
59.6400 4.7354
59.6500 7.0028
59.6600 4.5296
59.6700 5.5691
59.6800 2.3460
59.6900 3.4158
59.7000 4.5959
59.7100 4.3038
59.7200 3.8969
59.7300 0.3028
59.7400 3.6141
59.7500 3.2437
59.7600 5.0488
59.7700 2.4429
59.7800 2.8491
59.7900 2.9921
59.8000 1.5388
59.8100 5.6387
59.8200 7.3259
59.8300 6.4935
59.8400 5.4480
59.8500 6.7103
59.8600 7.5826
59.8700 8.1674
59.8800 5.0242
59.8900 2.1923
59.9000 2.8455
59.9100 3.0144
59.9200 4.1398
59.9300 5.1505
59.9400 4.4156
59.9500 3.5176
59.9600 1.2660
59.9700 3.8929
59.9800 1.1464
59.9900 3.2672
60.0000 2.2690
60.0100 4.0067
60.0200 0.5105
60.0300 4.0366
60.0400 3.1208
60.0500 7.5669
60.0600 3.4827
60.0700 3.3313
60.0800 3.1274
60.0900 1.8426
60.1000 2.6934
60.1100 3.1334
60.1200 3.6194
60.1300 7.3345
60.1400 4.6368
60.1500 5.7591
60.1600 2.9007
60.1700 2.8512
60.1800 1.0467
60.1900 2.1103
60.2000 3.0555
60.2100 3.2151
60.2200 2.4997
60.2300 5.1872
60.2400 5.5323
60.2500 1.8474
60.2600 3.1542
60.2700 4.8043
60.2800 5.1222
60.2900 1.2960
60.3000 1.4123
60.3100 5.4291
60.3200 5.1227
60.3300 3.2030
60.3400 4.1789
60.3500 3.0279
60.3600 4.8237
60.3700 4.0824
60.3800 5.0459
60.3900 7.2023
60.4000 4.2653
60.4100 7.2610
60.4200 4.6603
60.4300 2.1024
60.4400 2.1826
60.4500 5.6413
60.4600 8.4640
60.4700 4.9658
60.4800 4.9951
60.4900 8.0484
60.5000 7.3587
60.5100 3.8440
60.5200 5.7130
60.5300 4.0725
60.5400 5.0619
60.5500 7.0861
60.5600 5.0956
60.5700 5.0427
60.5800 1.8172
60.5900 8.5240
60.6000 5.4194
60.6100 4.1149
60.6200 6.7354
60.6300 6.9489
60.6400 4.4847
60.6500 3.2031
60.6600 1.1089
60.6700 4.7160
60.6800 2.1216
60.6900 10.4431
60.7000 1.9337
60.7100 3.0431
60.7200 4.6943
60.7300 5.5047
60.7400 2.6770
60.7500 3.1775
60.7600 6.7613
60.7700 4.6048
60.7800 4.3511
60.7900 3.1608
60.8000 3.0897
60.8100 6.1441
60.8200 3.6521
60.8300 5.1445
60.8400 4.9718
60.8500 3.7466
60.8600 3.9207
60.8700 3.6462
60.8800 2.9933
60.8900 3.2602
60.9000 3.7098
60.9100 5.0627
60.9200 1.0673
60.9300 3.2446
60.9400 7.2348
60.9500 9.4367
60.9600 4.5507
60.9700 4.5912
60.9800 3.7331
60.9900 5.9840
61.0000 2.7341
61.0100 4.0147
61.0200 6.2927
61.0300 6.0274
61.0400 3.0807
61.0500 3.2815
61.0600 3.4479
61.0700 2.2962
61.0800 4.2423
61.0900 6.7065
61.1000 3.6654
61.1100 3.5743
61.1200 1.5358
61.1300 1.9526
61.1400 4.3495
61.1500 1.7611
61.1600 5.3680
61.1700 5.4377
61.1800 5.1053
61.1900 5.8156
61.2000 6.8962
61.2100 2.3482
61.2200 2.9591
61.2300 2.1394
61.2400 4.0640
61.2500 4.2168
61.2600 3.1039
61.2700 5.3825
61.2800 3.2447
61.2900 2.6842
61.3000 4.8144
61.3100 5.0043
61.3200 5.4775
61.3300 3.2438
61.3400 3.2453
61.3500 8.4698
61.3600 5.7972
61.3700 1.6014
61.3800 3.9387
61.3900 5.1014
61.4000 6.9645
61.4100 4.1133
61.4200 5.7441
61.4300 4.8867
61.4400 3.4832
61.4500 3.1344
61.4600 4.1245
61.4700 6.1841
61.4800 3.4236
61.4900 4.6998
61.5000 4.7613
61.5100 5.8742
61.5200 5.4709
61.5300 4.0950
61.5400 3.1776
61.5500 3.1615
61.5600 9.1934
61.5700 5.9670
61.5800 4.1556
61.5900 3.8478
61.6000 3.4839
61.6100 3.1915
61.6200 5.1566
61.6300 3.5561
61.6400 3.4679
61.6500 2.5631
61.6600 7.2330
61.6700 6.0136
61.6800 5.0839
61.6900 4.1686
61.7000 5.5185
61.7100 5.7104
61.7200 4.3206
61.7300 2.5778
61.7400 4.5063
61.7500 3.5232
61.7600 5.1321
61.7700 4.8403
61.7800 5.3412
61.7900 6.6983
61.8000 7.7933
61.8100 2.3624
61.8200 4.3967
61.8300 6.7429
61.8400 9.0156
61.8500 6.7496
61.8600 3.5431
61.8700 3.3229
61.8800 8.0280
61.8900 3.2339
61.9000 5.2763
61.9100 5.7535
61.9200 6.7185
61.9300 2.6056
61.9400 3.9240
61.9500 6.8856
61.9600 5.1338
61.9700 5.4022
61.9800 7.2586
61.9900 4.2831
62.0000 7.1093
62.0100 4.1733
62.0200 2.1806
62.0300 4.9796
62.0400 4.2065
62.0500 2.8668
62.0600 4.4716
62.0700 8.2278
62.0800 5.7400
62.0900 8.1404
62.1000 5.3985
62.1100 5.7835
62.1200 8.9829
62.1300 9.5872
62.1400 6.0739
62.1500 5.3336
62.1600 4.0245
62.1700 5.2804
62.1800 4.5917
62.1900 3.1114
62.2000 5.0185
62.2100 1.5846
62.2200 4.6696
62.2300 4.6277
62.2400 4.5323
62.2500 6.9743
62.2600 4.2298
62.2700 3.5146
62.2800 2.8095
62.2900 3.4541
62.3000 4.6313
62.3100 5.5265
62.3200 7.2028
62.3300 5.2325
62.3400 3.3556
62.3500 6.7497
62.3600 1.7608
62.3700 6.2592
62.3800 3.5996
62.3900 5.8296
62.4000 4.2895
62.4100 5.2891
62.4200 5.5853
62.4300 4.3621
62.4400 8.2396
62.4500 2.7692
62.4600 3.8045
62.4700 6.9675
62.4800 2.4548
62.4900 2.0633
62.5000 4.0098
62.5100 7.6377
62.5200 5.2496
62.5300 3.2212
62.5400 2.1761
62.5500 4.6915
62.5600 4.0189
62.5700 2.6741
62.5800 2.8372
62.5900 2.5075
62.6000 3.2461
62.6100 2.1471
62.6200 7.1593
62.6300 4.2016
62.6400 5.8509
62.6500 4.1093
62.6600 7.6761
62.6700 5.3705
62.6800 6.8433
62.6900 5.2621
62.7000 2.8460
62.7100 3.0425
62.7200 6.1454
62.7300 5.3174
62.7400 5.0211
62.7500 2.6961
62.7600 5.2204
62.7700 4.3443
62.7800 4.3394
62.7900 3.2853
62.8000 7.6497
62.8100 6.0201
62.8200 2.0973
62.8300 6.0352
62.8400 4.3798
62.8500 5.4379
62.8600 1.0024
62.8700 0.9804
62.8800 4.4612
62.8900 2.6307
62.9000 4.7571
62.9100 1.0861
62.9200 2.9918
62.9300 7.2552
62.9400 4.3764
62.9500 6.5689
62.9600 2.3780
62.9700 4.9349
62.9800 2.0899
62.9900 5.9308
63.0000 2.8745
63.0100 3.3919
63.0200 4.4291
63.0300 5.1781
63.0400 7.0034
63.0500 2.2435
63.0600 6.1859
63.0700 6.7306
63.0800 5.9179
63.0900 7.8403
63.1000 4.7461
63.1100 6.4034
63.1200 2.4809
63.1300 5.1610
63.1400 4.3569
63.1500 1.3218
63.1600 4.1105
63.1700 2.9150
63.1800 2.0943
63.1900 1.6722
63.2000 2.5815
63.2100 3.6436
63.2200 4.9687
63.2300 3.4300
63.2400 7.9924
63.2500 3.3560
63.2600 2.1769
63.2700 6.5917
63.2800 5.6416
63.2900 6.6142
63.3000 4.3556
63.3100 6.0728
63.3200 5.2000
63.3300 6.9759
63.3400 3.4976
63.3500 3.2992
63.3600 6.4483
63.3700 5.1186
63.3800 4.8879
63.3900 3.3731
63.4000 6.6736
63.4100 4.7251
63.4200 5.0881
63.4300 5.5167
63.4400 7.3556
63.4500 3.5196
63.4600 5.1305
63.4700 8.5560
63.4800 5.6975
63.4900 9.6939
63.5000 7.6771
63.5100 3.0184
63.5200 4.1208
63.5300 2.0180
63.5400 5.5958
63.5500 4.9290
63.5600 4.6749
63.5700 6.0819
63.5800 4.3938
63.5900 5.2096
63.6000 4.3108
63.6100 5.3740
63.6200 3.9546
63.6300 7.7290
63.6400 2.7698
63.6500 8.2319
63.6600 6.8423
63.6700 1.9484
63.6800 5.4081
63.6900 10.1209
63.7000 6.5539
63.7100 2.6667
63.7200 2.6536
63.7300 1.5242
63.7400 2.3502
63.7500 4.0491
63.7600 4.9687
63.7700 2.9833
63.7800 2.2731
63.7900 5.2400
63.8000 2.1374
63.8100 6.9428
63.8200 4.7012
63.8300 5.8914
63.8400 5.9460
63.8500 3.8683
63.8600 2.1362
63.8700 4.4678
63.8800 7.0356
63.8900 2.1799
63.9000 6.9774
63.9100 4.8771
63.9200 2.0979
63.9300 4.9958
63.9400 4.6050
63.9500 5.4405
63.9600 4.5486
63.9700 4.8151
63.9800 7.0713
63.9900 4.2873
64.0000 2.1378
64.0100 1.6386
64.0200 6.1610
64.0300 9.4997
64.0400 5.4215
64.0500 6.2798
64.0600 3.0307
64.0700 10.4628
64.0800 5.2641
64.0900 2.1655
64.1000 5.8894
64.1100 3.6400
64.1200 5.5647
64.1300 3.6347
64.1400 6.3264
64.1500 5.0324
64.1600 5.8525
64.1700 1.1159
64.1800 3.4131
64.1900 5.7069
64.2000 1.3951
64.2100 5.4363
64.2200 5.8646
64.2300 3.0727
64.2400 4.0712
64.2500 5.3808
64.2600 2.1539
64.2700 0.8953
64.2800 2.3953
64.2900 3.3701
64.3000 3.9910
64.3100 6.3735
64.3200 1.3675
64.3300 4.9604
64.3400 5.0227
64.3500 4.1193
64.3600 3.0505
64.3700 4.2695
64.3800 2.2541
64.3900 3.1128
64.4000 4.8137
64.4100 5.9534
64.4200 5.2816
64.4300 4.5412
64.4400 5.3787
64.4500 7.3572
64.4600 4.9178
64.4700 11.8311
64.4800 2.5816
64.4900 3.2453
64.5000 6.2089
64.5100 7.3792
64.5200 6.4762
64.5300 7.1816
64.5400 6.2398
64.5500 9.7601
64.5600 12.3925
64.5700 10.4382
64.5800 8.4748
64.5900 4.6173
64.6000 7.5921
64.6100 10.5335
64.6200 10.2329
64.6300 11.6078
64.6400 8.4059
64.6500 6.3794
64.6600 7.8197
64.6700 11.6684
64.6800 4.9068
64.6900 8.2924
64.7000 13.1016
64.7100 8.7897
64.7200 8.6055
64.7300 8.2480
64.7400 13.5281
64.7500 10.5985
64.7600 10.0319
64.7700 12.0999
64.7800 10.2910
64.7900 18.8256
64.8000 13.7167
64.8100 10.8529
64.8200 11.3826
64.8300 11.1475
64.8400 11.6891
64.8500 9.5107
64.8600 11.3164
64.8700 16.0903
64.8800 9.3629
64.8900 12.1643
64.9000 21.4022
64.9100 18.2317
64.9200 10.1334
64.9300 13.0986
64.9400 11.5039
64.9500 10.5036
64.9600 9.5973
64.9700 9.6498
64.9800 9.9397
64.9900 12.4844
65.0000 7.0697
65.0100 7.5716
65.0200 3.9413
65.0300 12.2723
65.0400 10.0794
65.0500 2.5915
65.0600 7.4999
65.0700 6.6517
65.0800 11.8650
65.0900 9.4959
65.1000 11.9975
65.1100 9.7173
65.1200 7.9193
65.1300 6.2707
65.1400 7.0402
65.1500 7.7020
65.1600 3.1054
65.1700 5.6737
65.1800 9.6990
65.1900 5.9383
65.2000 4.7463
65.2100 4.7679
65.2200 4.0820
65.2300 9.0788
65.2400 5.1824
65.2500 5.8450
65.2600 5.4634
65.2700 5.2201
65.2800 4.2015
65.2900 3.4349
65.3000 4.5472
65.3100 2.3309
65.3200 3.5046
65.3300 4.1775
65.3400 5.6348
65.3500 2.8057
65.3600 8.5489
65.3700 5.6684
65.3800 6.8466
65.3900 1.4536
65.4000 3.7373
65.4100 5.9872
65.4200 7.9202
65.4300 4.8487
65.4400 6.2626
65.4500 2.7223
65.4600 3.8124
65.4700 5.2318
65.4800 8.2372
65.4900 4.8393
65.5000 2.1786
65.5100 5.3305
65.5200 4.0025
65.5300 6.1381
65.5400 6.3394
65.5500 3.6903
65.5600 6.5759
65.5700 5.2194
65.5800 6.1339
65.5900 6.6116
65.6000 3.2718
65.6100 6.6362
65.6200 5.4823
65.6300 6.7158
65.6400 3.2109
65.6500 7.0332
65.6600 6.7510
65.6700 10.0241
65.6800 5.1185
65.6900 2.1652
65.7000 5.3211
65.7100 3.0763
65.7200 1.5217
65.7300 4.8632
65.7400 6.5937
65.7500 4.4328
65.7600 6.9463
65.7700 4.1476
65.7800 2.0113
65.7900 3.8442
65.8000 6.3141
65.8100 6.6698
65.8200 5.9980
65.8300 5.1807
65.8400 3.0577
65.8500 2.6899
65.8600 2.4911
65.8700 2.9035
65.8800 6.7120
65.8900 3.6363
65.9000 3.1141
65.9100 3.9824
65.9200 3.4651
65.9300 6.2795
65.9400 5.1749
65.9500 1.8364
65.9600 4.5517
65.9700 7.7559
65.9800 3.4375
65.9900 3.2634
66.0000 3.2059
66.0100 7.2661
66.0200 7.8538
66.0300 3.7239
66.0400 2.3225
66.0500 3.5217
66.0600 3.8732
66.0700 3.3455
66.0800 3.2005
66.0900 1.6868
66.1000 3.1126
66.1100 1.9843
66.1200 4.3104
66.1300 2.9865
66.1400 3.0961
66.1500 3.7221
66.1600 2.2123
66.1700 5.8503
66.1800 3.5146
66.1900 3.6454
66.2000 1.1917
66.2100 2.0639
66.2200 3.0820
66.2300 3.1244
66.2400 2.9000
66.2500 2.3516
66.2600 2.5347
66.2700 3.7324
66.2800 3.3097
66.2900 3.5080
66.3000 4.6957
66.3100 1.2050
66.3200 5.1366
66.3300 2.1904
66.3400 2.2876
66.3500 5.2659
66.3600 5.5225
66.3700 3.4830
66.3800 1.5558
66.3900 4.1686
66.4000 5.3053
66.4100 4.1500
66.4200 1.2340
66.4300 1.9607
66.4400 2.8147
66.4500 2.5137
66.4600 5.0122
66.4700 2.7093
66.4800 4.9244
66.4900 3.9402
66.5000 1.3194
66.5100 6.1043
66.5200 5.1974
66.5300 2.1373
66.5400 7.1211
66.5500 3.7247
66.5600 12.3241
66.5700 5.2024
66.5800 8.9054
66.5900 4.2876
66.6000 3.3447
66.6100 5.2877
66.6200 5.5715
66.6300 4.9052
66.6400 8.3498
66.6500 2.9971
66.6600 3.4308
66.6700 5.7729
66.6800 3.1792
66.6900 4.1382
66.7000 2.5002
66.7100 7.4916
66.7200 3.5368
66.7300 3.1681
66.7400 2.0513
66.7500 6.3007
66.7600 6.0255
66.7700 4.4991
66.7800 4.2698
66.7900 2.6096
66.8000 5.5951
66.8100 4.6930
66.8200 5.3643
66.8300 2.6731
66.8400 7.1553
66.8500 4.0205
66.8600 0.2633
66.8700 6.1690
66.8800 4.9518
66.8900 3.5129
66.9000 1.5078
66.9100 6.2436
66.9200 3.9692
66.9300 6.5035
66.9400 2.5285
66.9500 5.1655
66.9600 4.2558
66.9700 1.1925
66.9800 3.9803
66.9900 3.0638
67.0000 1.8851
67.0100 2.7682
67.0200 3.5048
67.0300 4.5448
67.0400 5.5303
67.0500 5.2369
67.0600 5.2456
67.0700 2.2062
67.0800 6.3745
67.0900 4.9408
67.1000 6.1204
67.1100 4.5867
67.1200 2.6265
67.1300 3.5055
67.1400 2.0076
67.1500 6.2488
67.1600 1.9283
67.1700 4.1556
67.1800 8.1095
67.1900 3.0973
67.2000 5.4906
67.2100 6.3362
67.2200 4.8173
67.2300 3.3812
67.2400 6.7988
67.2500 6.9504
67.2600 5.5769
67.2700 6.1614
67.2800 6.1380
67.2900 3.3587
67.3000 4.3694
67.3100 3.0550
67.3200 2.7152
67.3300 3.6726
67.3400 3.7232
67.3500 4.9337
67.3600 4.6327
67.3700 5.2416
67.3800 7.5233
67.3900 2.8832
67.4000 3.5903
67.4100 3.0869
67.4200 3.0706
67.4300 2.0935
67.4400 3.7251
67.4500 6.0570
67.4600 4.4509
67.4700 3.1337
67.4800 5.2233
67.4900 10.5791
67.5000 10.1530
67.5100 9.0174
67.5200 1.8575
67.5300 5.0494
67.5400 1.5710
67.5500 4.7832
67.5600 4.2244
67.5700 3.9581
67.5800 2.8974
67.5900 8.1686
67.6000 4.0926
67.6100 3.2417
67.6200 5.1546
67.6300 4.6825
67.6400 4.7742
67.6500 6.2890
67.6600 2.4529
67.6700 2.0849
67.6800 0.2614
67.6900 2.9415
67.7000 5.1589
67.7100 3.9726
67.7200 1.9320
67.7300 2.3023
67.7400 2.9490
67.7500 5.8538
67.7600 4.8493
67.7700 8.4800
67.7800 1.7418
67.7900 4.2032
67.8000 7.4346
67.8100 4.3799
67.8200 5.0821
67.8300 2.0212
67.8400 2.8348
67.8500 3.7634
67.8600 2.0736
67.8700 4.7172
67.8800 2.1110
67.8900 5.2012
67.9000 4.5967
67.9100 3.1188
67.9200 7.0060
67.9300 2.3526
67.9400 2.7497
67.9500 2.9855
67.9600 3.9299
67.9700 5.6432
67.9800 1.8167
67.9900 3.2095
68.0000 6.9710
68.0100 6.4291
68.0200 4.2487
68.0300 5.3469
68.0400 3.5821
68.0500 5.0284
68.0600 3.8106
68.0700 3.6911
68.0800 2.6673
68.0900 7.0528
68.1000 1.3524
68.1100 8.5067
68.1200 3.4812
68.1300 5.1930
68.1400 5.1125
68.1500 7.2421
68.1600 7.8958
68.1700 4.4843
68.1800 1.6138
68.1900 1.9431
68.2000 3.7632
68.2100 6.9689
68.2200 3.2766
68.2300 1.2190
68.2400 5.1553
68.2500 2.7590
68.2600 3.8347
68.2700 3.9993
68.2800 2.1300
68.2900 6.3201
68.3000 3.3254
68.3100 5.4923
68.3200 3.7777
68.3300 2.2370
68.3400 5.0491
68.3500 3.6484
68.3600 8.2789
68.3700 8.0431
68.3800 7.6731
68.3900 9.6402
68.4000 6.4716
68.4100 5.0806
68.4200 4.7079
68.4300 2.9973
68.4400 3.0356
68.4500 4.2706
68.4600 3.8938
68.4700 5.3800
68.4800 4.0952
68.4900 5.9996
68.5000 6.0736
68.5100 3.9271
68.5200 6.4836
68.5300 8.7845
68.5400 3.8798
68.5500 7.2313
68.5600 5.2002
68.5700 4.9892
68.5800 1.4246
68.5900 5.1739
68.6000 4.1564
68.6100 3.8156
68.6200 5.1945
68.6300 5.1043
68.6400 0.2049
68.6500 3.6336
68.6600 3.0626
68.6700 3.5763
68.6800 5.0196
68.6900 3.8733
68.7000 4.5335
68.7100 4.5829
68.7200 2.1056
68.7300 1.1282
68.7400 6.0412
68.7500 7.5180
68.7600 4.1644
68.7700 5.3872
68.7800 2.2565
68.7900 2.6064
68.8000 4.2354
68.8100 1.5729
68.8200 0.0000
68.8300 2.6021
68.8400 2.9440
68.8500 2.4469
68.8600 5.1120
68.8700 3.1342
68.8800 5.7743
68.8900 9.0337
68.9000 4.3931
68.9100 1.0611
68.9200 5.2545
68.9300 4.9957
68.9400 4.1636
68.9500 4.5117
68.9600 5.6919
68.9700 8.3671
68.9800 7.2234
68.9900 7.3886
69.0000 3.4292
69.0100 3.0072
69.0200 6.9769
69.0300 6.0349
69.0400 6.6246
69.0500 6.1561
69.0600 7.9863
69.0700 3.7816
69.0800 8.9366
69.0900 4.1172
69.1000 2.6683
69.1100 1.6429
69.1200 3.5449
69.1300 3.2153
69.1400 3.3747
69.1500 7.2131
69.1600 4.3632
69.1700 1.3684
69.1800 5.9229
69.1900 6.0978
69.2000 10.2010
69.2100 3.7017
69.2200 5.5541
69.2300 4.1902
69.2400 2.0160
69.2500 4.3213
69.2600 7.5573
69.2700 3.0405
69.2800 3.0326
69.2900 6.1568
69.3000 3.1059
69.3100 3.7663
69.3200 1.3036
69.3300 2.6358
69.3400 1.4906
69.3500 6.3821
69.3600 3.8934
69.3700 5.9887
69.3800 2.0181
69.3900 2.1421
69.4000 3.4304
69.4100 7.9447
69.4200 7.6799
69.4300 6.8015
69.4400 4.1156
69.4500 7.6498
69.4600 2.5831
69.4700 4.0689
69.4800 7.4356
69.4900 5.6937
69.5000 6.1325
69.5100 4.3889
69.5200 3.8404
69.5300 4.4208
69.5400 5.2389
69.5500 5.1192
69.5600 2.0422
69.5700 6.0663
69.5800 6.1969
69.5900 4.9787
69.6000 4.5159
69.6100 4.1843
69.6200 3.3751
69.6300 6.4898
69.6400 4.3315
69.6500 5.8486
69.6600 4.1765
69.6700 3.0869
69.6800 1.4240
69.6900 2.5602
69.7000 8.2545
69.7100 4.2977
69.7200 8.2357
69.7300 3.1444
69.7400 2.5100
69.7500 3.3715
69.7600 1.7215
69.7700 4.3824
69.7800 4.0287
69.7900 1.7463
69.8000 2.1345
69.8100 2.0842
69.8200 4.0558
69.8300 4.2527
69.8400 2.9716
69.8500 5.0688
69.8600 2.5946
69.8700 4.1340
69.8800 2.0273
69.8900 3.1775
69.9000 1.9402
69.9100 5.2209
69.9200 3.1471
69.9300 2.2897
69.9400 5.7759
69.9500 0.9652
69.9600 3.5141
69.9700 2.9823
69.9800 6.4801
69.9900 2.9059
70.0000 0.3627
70.0100 3.5525
70.0200 7.9275
70.0300 3.3091
70.0400 6.5783
70.0500 5.8740
70.0600 3.2932
70.0700 6.9336
70.0800 4.7489
70.0900 4.6583
70.1000 2.4899
70.1100 4.5769
70.1200 4.5883
70.1300 5.0014
70.1400 7.2467
70.1500 4.3785
70.1600 3.4876
70.1700 7.1943
70.1800 3.5667
70.1900 6.0778
70.2000 3.5047
70.2100 6.2119
70.2200 5.5312
70.2300 1.7640
70.2400 6.9926
70.2500 4.1366
70.2600 4.2461
70.2700 7.5052
70.2800 4.4325
70.2900 4.0462
70.3000 3.7179
70.3100 6.9300
70.3200 4.2133
70.3300 2.6007
70.3400 5.8391
70.3500 3.3068
70.3600 3.1367
70.3700 4.5949
70.3800 6.4449
70.3900 4.8775
70.4000 2.6165
70.4100 3.1742
70.4200 9.3986
70.4300 2.7711
70.4400 4.1656
70.4500 8.9739
70.4600 4.1522
70.4700 4.6350
70.4800 5.7184
70.4900 1.8152
70.5000 5.4558
70.5100 4.6064
70.5200 6.3615
70.5300 7.5252
70.5400 7.3807
70.5500 4.8079
70.5600 2.1281
70.5700 3.5965
70.5800 2.9994
70.5900 3.0887
70.6000 2.7237
70.6100 4.8902
70.6200 1.6328
70.6300 2.7883
70.6400 1.9048
70.6500 2.6613
70.6600 7.1531
70.6700 8.3856
70.6800 7.8169
70.6900 5.1686
70.7000 3.5178
70.7100 2.8633
70.7200 5.2278
70.7300 4.4439
70.7400 6.5810
70.7500 9.1850
70.7600 5.7591
70.7700 4.2001
70.7800 5.0251
70.7900 0.0000
70.8000 1.9282
70.8100 1.8729
70.8200 3.7530
70.8300 2.0422
70.8400 7.0186
70.8500 3.6810
70.8600 4.3876
70.8700 6.4226
70.8800 1.2116
70.8900 4.0208
70.9000 2.1370
70.9100 5.6788
70.9200 3.0250
70.9300 3.9826
70.9400 3.8389
70.9500 1.7614
70.9600 2.9901
70.9700 6.8075
70.9800 4.3482
70.9900 2.1137
71.0000 2.5317
71.0100 9.1220
71.0200 6.6286
71.0300 4.9160
71.0400 3.3764
71.0500 4.3444
71.0600 3.0245
71.0700 2.8290
71.0800 3.7637
71.0900 3.2685
71.1000 2.8388
71.1100 5.3467
71.1200 2.1687
71.1300 7.3483
71.1400 3.1509
71.1500 6.2246
71.1600 6.7006
71.1700 2.9031
71.1800 3.3233
71.1900 1.9471
71.2000 3.4048
71.2100 4.9462
71.2200 8.6126
71.2300 4.9581
71.2400 4.7039
71.2500 2.0807
71.2600 1.6702
71.2700 2.4524
71.2800 2.3814
71.2900 0.9854
71.3000 2.8402
71.3100 7.9730
71.3200 1.4690
71.3300 5.5369
71.3400 5.0554
71.3500 5.4097
71.3600 3.2195
71.3700 5.0677
71.3800 3.1048
71.3900 2.7696
71.4000 8.9649
71.4100 4.3195
71.4200 4.1428
71.4300 2.8368
71.4400 1.3287
71.4500 2.4877
71.4600 4.7990
71.4700 4.3935
71.4800 7.2681
71.4900 4.5704
71.5000 5.9266
71.5100 1.2641
71.5200 5.0792
71.5300 2.4478
71.5400 3.6312
71.5500 4.9741
71.5600 3.8094
71.5700 3.7780
71.5800 3.1212
71.5900 5.0057
71.6000 6.9753
71.6100 2.3374
71.6200 2.9567
71.6300 4.3135
71.6400 5.7528
71.6500 3.0159
71.6600 3.1472
71.6700 4.5658
71.6800 4.4798
71.6900 6.0385
71.7000 4.6901
71.7100 3.3570
71.7200 2.1601
71.7300 5.1777
71.7400 2.1401
71.7500 2.2084
71.7600 4.1158
71.7700 2.2423
71.7800 3.6396
71.7900 6.8726
71.8000 7.2965
71.8100 3.2368
71.8200 5.0053
71.8300 4.4791
71.8400 5.1760
71.8500 3.0142
71.8600 3.1967
71.8700 4.5152
71.8800 1.8671
71.8900 4.1520
71.9000 6.5121
71.9100 5.9241
71.9200 5.1616
71.9300 3.4582
71.9400 3.0986
71.9500 0.5466
71.9600 5.3527
71.9700 4.6484
71.9800 8.0351
71.9900 4.2814
72.0000 4.4838
72.0100 8.4486
72.0200 3.6953
72.0300 2.8934
72.0400 3.1903
72.0500 2.0518
72.0600 3.0566
72.0700 3.3889
72.0800 6.0211
72.0900 2.7827
72.1000 3.8652
72.1100 2.7035
72.1200 2.1208
72.1300 2.4596
72.1400 2.9537
72.1500 7.2675
72.1600 9.9708
72.1700 5.5731
72.1800 4.0355
72.1900 3.6602
72.2000 8.4911
72.2100 6.0375
72.2200 3.7802
72.2300 1.1519
72.2400 1.8501
72.2500 3.0701
72.2600 1.4052
72.2700 10.7674
72.2800 4.1533
72.2900 6.1481
72.3000 3.0398
72.3100 5.0145
72.3200 4.0156
72.3300 7.2273
72.3400 4.0760
72.3500 2.3587
72.3600 1.9846
72.3700 3.3591
72.3800 4.1172
72.3900 3.9752
72.4000 2.6637
72.4100 3.5018
72.4200 3.6323
72.4300 3.8145
72.4400 5.0150
72.4500 4.7176
72.4600 10.0275
72.4700 3.4215
72.4800 5.7841
72.4900 2.2189
72.5000 5.9920
72.5100 3.4828
72.5200 5.6278
72.5300 6.0463
72.5400 6.9663
72.5500 5.8969
72.5600 2.7451
72.5700 2.5005
72.5800 10.9726
72.5900 5.2073
72.6000 3.7095
72.6100 3.0546
72.6200 3.0375
72.6300 4.1511
72.6400 2.0167
72.6500 2.7150
72.6600 3.9843
72.6700 2.1730
72.6800 5.5546
72.6900 6.0838
72.7000 6.9164
72.7100 5.4416
72.7200 6.1523
72.7300 6.6279
72.7400 4.2179
72.7500 3.8604
72.7600 4.8488
72.7700 6.3221
72.7800 5.0126
72.7900 4.0497
72.8000 3.4322
72.8100 5.3149
72.8200 4.4391
72.8300 2.1288
72.8400 3.6964
72.8500 3.4881
72.8600 5.5412
72.8700 7.6624
72.8800 3.6381
72.8900 2.1069
72.9000 2.0214
72.9100 6.4315
72.9200 6.3244
72.9300 5.2015
72.9400 4.8358
72.9500 4.6774
72.9600 3.5254
72.9700 5.3681
72.9800 6.2548
72.9900 6.9489
73.0000 1.4730
73.0100 6.2461
73.0200 6.6856
73.0300 4.1227
73.0400 5.2162
73.0500 4.2014
73.0600 4.0294
73.0700 1.0533
73.0800 3.2896
73.0900 4.6786
73.1000 0.3089
73.1100 2.8766
73.1200 3.9177
73.1300 3.1462
73.1400 1.7310
73.1500 5.0754
73.1600 5.6848
73.1700 4.2926
73.1800 7.4340
73.1900 5.2507
73.2000 3.1768
73.2100 5.0749
73.2200 6.0059
73.2300 3.3830
73.2400 7.0452
73.2500 2.7707
73.2600 3.7599
73.2700 3.6702
73.2800 1.7890
73.2900 5.1420
73.3000 3.5419
73.3100 4.0066
73.3200 5.2790
73.3300 3.7086
73.3400 0.2425
73.3500 6.5421
73.3600 3.2070
73.3700 3.6731
73.3800 0.4790
73.3900 2.4114
73.4000 2.1867
73.4100 4.1194
73.4200 4.2310
73.4300 1.4506
73.4400 3.8059
73.4500 3.7489
73.4600 4.0740
73.4700 4.0342
73.4800 0.5584
73.4900 3.2103
73.5000 3.6210
73.5100 2.5644
73.5200 4.1804
73.5300 4.2882
73.5400 7.0308
73.5500 4.3961
73.5600 3.2023
73.5700 4.1729
73.5800 2.1526
73.5900 2.0292
73.6000 2.3218
73.6100 4.2395
73.6200 5.5822
73.6300 4.1083
73.6400 5.7634
73.6500 1.4948
73.6600 5.0147
73.6700 4.2649
73.6800 4.5725
73.6900 3.3002
73.7000 5.1655
73.7100 3.4185
73.7200 1.8689
73.7300 5.2657
73.7400 5.1391
73.7500 4.4187
73.7600 8.1667
73.7700 5.8423
73.7800 6.9510
73.7900 4.7404
73.8000 2.9509
73.8100 2.3941
73.8200 7.6880
73.8300 3.5871
73.8400 4.5067
73.8500 6.1581
73.8600 5.9974
73.8700 6.2266
73.8800 7.0828
73.8900 7.4582
73.9000 5.9576
73.9100 5.2140
73.9200 1.6706
73.9300 4.4955
73.9400 0.3363
73.9500 4.9773
73.9600 7.2670
73.9700 5.9129
73.9800 6.2281
73.9900 4.9703
74.0000 2.2932
74.0100 6.9060
74.0200 4.3437
74.0300 3.0173
74.0400 7.5763
74.0500 3.6261
74.0600 6.0575
74.0700 5.5402
74.0800 8.1558
74.0900 3.8714
74.1000 0.6687
74.1100 1.5665
74.1200 5.8945
74.1300 4.2859
74.1400 1.0636
74.1500 2.9561
74.1600 3.2458
74.1700 5.2774
74.1800 5.0143
74.1900 4.1073
74.2000 4.9398
74.2100 6.9783
74.2200 2.5622
74.2300 1.3581
74.2400 5.3639
74.2500 3.5758
74.2600 4.6988
74.2700 5.0981
74.2800 3.5261
74.2900 7.2285
74.3000 9.2368
74.3100 1.4077
74.3200 3.7954
74.3300 3.6840
74.3400 2.8614
74.3500 5.9955
74.3600 2.4545
74.3700 6.4688
74.3800 5.2530
74.3900 4.3155
74.4000 5.5331
74.4100 4.2974
74.4200 4.0232
74.4300 3.4404
74.4400 7.3927
74.4500 5.1598
74.4600 6.8130
74.4700 5.7309
74.4800 1.2432
74.4900 3.9998
74.5000 9.1054
74.5100 2.3823
74.5200 3.3620
74.5300 6.0213
74.5400 2.6133
74.5500 2.6907
74.5600 4.1130
74.5700 1.4499
74.5800 3.9723
74.5900 4.2642
74.6000 3.2847
74.6100 3.7496
74.6200 1.0792
74.6300 2.0236
74.6400 2.5940
74.6500 5.0197
74.6600 7.1234
74.6700 7.8662
74.6800 7.8091
74.6900 2.0522
74.7000 2.7103
74.7100 5.0708
74.7200 7.3303
74.7300 5.5295
74.7400 6.4991
74.7500 3.3695
74.7600 3.4872
74.7700 1.0672
74.7800 2.1379
74.7900 3.5341
74.8000 2.1782
74.8100 5.2807
74.8200 3.2430
74.8300 4.6590
74.8400 5.3050
74.8500 4.4601
74.8600 4.1361
74.8700 5.8076
74.8800 1.4090
74.8900 6.9108
74.9000 1.3346
74.9100 2.3879
74.9200 4.0383
74.9300 3.2078
74.9400 4.5541
74.9500 3.2931
74.9600 2.7272
74.9700 3.2181
74.9800 4.4162
74.9900 4.7646
75.0000 2.4229
75.0100 5.1344
75.0200 5.3612
75.0300 6.2958
75.0400 9.2689
75.0500 5.0407
75.0600 4.2130
75.0700 1.5265
75.0800 6.7531
75.0900 5.6090
75.1000 7.8901
75.1100 4.1357
75.1200 4.7199
75.1300 3.5273
75.1400 4.2034
75.1500 4.1842
75.1600 2.9256
75.1700 4.1622
75.1800 5.8022
75.1900 5.0702
75.2000 5.2841
75.2100 5.6859
75.2200 4.8771
75.2300 5.2319
75.2400 4.0908
75.2500 6.1117
75.2600 5.8591
75.2700 5.4918
75.2800 4.6422
75.2900 1.9178
75.3000 2.3613
75.3100 6.7107
75.3200 3.5306
75.3300 2.2187
75.3400 6.1048
75.3500 2.3104
75.3600 2.7781
75.3700 2.0579
75.3800 1.6109
75.3900 3.2538
75.4000 7.7345
75.4100 8.3627
75.4200 7.5757
75.4300 5.0978
75.4400 5.0062
75.4500 2.8637
75.4600 6.8452
75.4700 3.5275
75.4800 5.3247
75.4900 2.3182
75.5000 6.4984
75.5100 7.0807
75.5200 5.4793
75.5300 2.9656
75.5400 3.2226
75.5500 5.0540
75.5600 5.0499
75.5700 4.2146
75.5800 4.1803
75.5900 4.3635
75.6000 5.9502
75.6100 3.7678
75.6200 1.8345
75.6300 1.2464
75.6400 9.8651
75.6500 3.3778
75.6600 5.7693
75.6700 4.6085
75.6800 3.6398
75.6900 2.6523
75.7000 3.8172
75.7100 9.1546
75.7200 1.0904
75.7300 7.6795
75.7400 6.7762
75.7500 5.4739
75.7600 5.1711
75.7700 8.0248
75.7800 2.3884
75.7900 3.1391
75.8000 2.2074
75.8100 5.0650
75.8200 5.6505
75.8300 2.2990
75.8400 5.3770
75.8500 2.6078
75.8600 1.9983
75.8700 2.0628
75.8800 1.4943
75.8900 2.1985
75.9000 1.4320
75.9100 2.6534
75.9200 4.8471
75.9300 2.1307
75.9400 3.6589
75.9500 2.9055
75.9600 4.0805
75.9700 3.1731
75.9800 4.8581
75.9900 4.8938
76.0000 4.2058
76.0100 6.4306
76.0200 3.7700
76.0300 4.5943
76.0400 5.4165
76.0500 2.7087
76.0600 2.3490
76.0700 2.1540
76.0800 6.0549
76.0900 2.0447
76.1000 3.6225
76.1100 4.0233
76.1200 3.5211
76.1300 5.1037
76.1400 2.1590
76.1500 5.0561
76.1600 8.8763
76.1700 5.3176
76.1800 3.5259
76.1900 6.8436
76.2000 5.8518
76.2100 1.7929
76.2200 2.3691
76.2300 3.5637
76.2400 3.5501
76.2500 2.8825
76.2600 6.6331
76.2700 4.6986
76.2800 4.1532
76.2900 0.0000
76.3000 0.4022
76.3100 4.5902
76.3200 5.0899
76.3300 4.7108
76.3400 5.4241
76.3500 4.6260
76.3600 6.9773
76.3700 1.6848
76.3800 3.1978
76.3900 2.1247
76.4000 7.2213
76.4100 5.1503
76.4200 3.5559
76.4300 3.7749
76.4400 0.5197
76.4500 3.7817
76.4600 2.1554
76.4700 6.7014
76.4800 10.0977
76.4900 4.3852
76.5000 1.1362
76.5100 5.3238
76.5200 5.2154
76.5300 2.6251
76.5400 2.3855
76.5500 3.5635
76.5600 2.8863
76.5700 3.4603
76.5800 6.1293
76.5900 5.9445
76.6000 4.1755
76.6100 3.1993
76.6200 6.4812
76.6300 5.2954
76.6400 8.9570
76.6500 4.1359
76.6600 4.4331
76.6700 3.9738
76.6800 6.1833
76.6900 3.3088
76.7000 1.1517
76.7100 8.2213
76.7200 4.9314
76.7300 1.8850
76.7400 3.7146
76.7500 2.7498
76.7600 4.1450
76.7700 4.1908
76.7800 4.4010
76.7900 3.5877
76.8000 4.9175
76.8100 4.8483
76.8200 3.2910
76.8300 2.8359
76.8400 2.0674
76.8500 0.7023
76.8600 3.4422
76.8700 2.2579
76.8800 4.8639
76.8900 1.2382
76.9000 4.8734
76.9100 8.4155
76.9200 2.4002
76.9300 3.7495
76.9400 5.0164
76.9500 5.3845
76.9600 8.4038
76.9700 4.8750
76.9800 5.9756
76.9900 5.7453
77.0000 4.2631
77.0100 3.9179
77.0200 2.4408
77.0300 8.4628
77.0400 6.4988
77.0500 5.9940
77.0600 7.9195
77.0700 1.0828
77.0800 3.0712
77.0900 2.4587
77.1000 7.0842
77.1100 9.6986
77.1200 4.9702
77.1300 3.2811
77.1400 5.5553
77.1500 6.3823
77.1600 5.5324
77.1700 3.4127
77.1800 8.1143
77.1900 9.1116
77.2000 9.2619
77.2100 3.2808
77.2200 2.4673
77.2300 3.0079
77.2400 6.7143
77.2500 1.8959
77.2600 9.2100
77.2700 3.5419
77.2800 4.3237
77.2900 5.9652
77.3000 1.4040
77.3100 2.4478
77.3200 4.1654
77.3300 2.7658
77.3400 4.0858
77.3500 3.1452
77.3600 2.3102
77.3700 3.9294
77.3800 3.5281
77.3900 2.8284
77.4000 6.5617
77.4100 1.0542
77.4200 4.3817
77.4300 6.3083
77.4400 4.6554
77.4500 1.2052
77.4600 6.0814
77.4700 3.8213
77.4800 4.3936
77.4900 9.0632
77.5000 8.0631
77.5100 3.0291
77.5200 2.5043
77.5300 6.0051
77.5400 1.7319
77.5500 3.9750
77.5600 4.9550
77.5700 5.9915
77.5800 5.6937
77.5900 6.4005
77.6000 4.1819
77.6100 5.3787
77.6200 3.5768
77.6300 2.4695
77.6400 2.9182
77.6500 5.1089
77.6600 6.3613
77.6700 6.0598
77.6800 5.3705
77.6900 3.9321
77.7000 4.9171
77.7100 5.3968
77.7200 3.0169
77.7300 2.0488
77.7400 4.8893
77.7500 3.5451
77.7600 7.0305
77.7700 6.7976
77.7800 3.3958
77.7900 4.2884
77.8000 6.0861
77.8100 6.0660
77.8200 3.8054
77.8300 4.8340
77.8400 7.1360
77.8500 7.9262
77.8600 0.5014
77.8700 1.0000
77.8800 4.0161
77.8900 1.8020
77.9000 6.3220
77.9100 6.0623
77.9200 1.5493
77.9300 4.2242
77.9400 8.4704
77.9500 2.2857
77.9600 3.9569
77.9700 4.9974
77.9800 3.1536
77.9900 5.5716
78.0000 6.4418
78.0100 3.7718
78.0200 3.9739
78.0300 5.1647
78.0400 2.8872
78.0500 1.0006
78.0600 4.4217
78.0700 4.1709
78.0800 1.2313
78.0900 2.1011
78.1000 4.4070
78.1100 5.6229
78.1200 8.5118
78.1300 3.6509
78.1400 3.5505
78.1500 2.8052
78.1600 3.9058
78.1700 6.2647
78.1800 3.1719
78.1900 5.0473
78.2000 4.2296
78.2100 5.9471
78.2200 4.8933
78.2300 5.6032
78.2400 7.1707
78.2500 4.5361
78.2600 4.7983
78.2700 6.1135
78.2800 2.2701
78.2900 3.1591
78.3000 6.0271
78.3100 2.8544
78.3200 2.5225
78.3300 3.2727
78.3400 1.0483
78.3500 6.5263
78.3600 2.6738
78.3700 6.3685
78.3800 5.8694
78.3900 4.9652
78.4000 9.2934
78.4100 6.9970
78.4200 6.0259
78.4300 4.1313
78.4400 6.8026
78.4500 4.5664
78.4600 3.7553
78.4700 3.5046
78.4800 4.3705
78.4900 0.8924
78.5000 5.9505
78.5100 0.7966
78.5200 6.0112
78.5300 5.5114
78.5400 2.4160
78.5500 5.3874
78.5600 4.7264
78.5700 2.6573
78.5800 4.9536
78.5900 6.2422
78.6000 3.0934
78.6100 2.2743
78.6200 4.2947
78.6300 2.6550
78.6400 5.7364
78.6500 5.0264
78.6600 5.6295
78.6700 6.6288
78.6800 2.8111
78.6900 2.7398
78.7000 4.7923
78.7100 3.6386
78.7200 2.2833
78.7300 3.0278
78.7400 3.8219
78.7500 9.3789
78.7600 5.8525
78.7700 6.5073
78.7800 3.9628
78.7900 4.8601
78.8000 7.4772
78.8100 5.3267
78.8200 5.8050
78.8300 3.0618
78.8400 3.0478
78.8500 5.1365
78.8600 2.8678
78.8700 3.9146
78.8800 6.4630
78.8900 4.9843
78.9000 4.2166
78.9100 1.4988
78.9200 3.8199
78.9300 5.3634
78.9400 5.1338
78.9500 4.0109
78.9600 3.6643
78.9700 4.2315
78.9800 3.8350
78.9900 4.3641
79.0000 3.9743
79.0100 2.4316
79.0200 1.2032
79.0300 3.0827
79.0400 5.0824
79.0500 3.1012
79.0600 6.1151
79.0700 2.4264
79.0800 5.2068
79.0900 2.1067
79.1000 5.2514
79.1100 7.5275
79.1200 7.2037
79.1300 3.8251
79.1400 4.8109
79.1500 4.2695
79.1600 5.7753
79.1700 5.9166
79.1800 3.2143
79.1900 3.6618
79.2000 4.7785
79.2100 7.4498
79.2200 3.7699
79.2300 5.0822
79.2400 7.3770
79.2500 6.4250
79.2600 6.9396
79.2700 3.5732
79.2800 8.2165
79.2900 3.9329
79.3000 2.6106
79.3100 5.5577
79.3200 3.0617
79.3300 3.2294
79.3400 2.4524
79.3500 5.0610
79.3600 5.2870
79.3700 2.4632
79.3800 4.9667
79.3900 4.2693
79.4000 5.8226
79.4100 4.0021
79.4200 2.9858
79.4300 2.8330
79.4400 3.1742
79.4500 4.0963
79.4600 4.2067
79.4700 6.9776
79.4800 1.1364
79.4900 2.1772
79.5000 3.1316
79.5100 3.1896
79.5200 3.1404
79.5300 6.2960
79.5400 5.1539
79.5500 2.9612
79.5600 4.1447
79.5700 4.3198
79.5800 5.8301
79.5900 4.6352
79.6000 4.9956
79.6100 4.8214
79.6200 2.9550
79.6300 4.0973
79.6400 6.2965
79.6500 3.6672
79.6600 1.2267
79.6700 0.0900
79.6800 2.0256
79.6900 1.4742
79.7000 5.3419
79.7100 3.3858
79.7200 4.5462
79.7300 6.4735
79.7400 5.3639
79.7500 3.7093
79.7600 5.2486
79.7700 2.4482
79.7800 5.9957
79.7900 3.2455
79.8000 6.7921
79.8100 6.4013
79.8200 3.8078
79.8300 3.0767
79.8400 3.4279
79.8500 2.5101
79.8600 5.5506
79.8700 6.9148
79.8800 5.4881
79.8900 7.1299
79.9000 10.4637
79.9100 4.3222
79.9200 5.3913
79.9300 4.1947
79.9400 4.2830
79.9500 2.5823
79.9600 1.2964
79.9700 1.6381
79.9800 5.9522
79.9900 5.3555
80.0000 1.1664
80.0100 5.6735
80.0200 6.2188
80.0300 5.7706
80.0400 4.7362
80.0500 4.7043
80.0600 1.4972
80.0700 3.9761
80.0800 9.3530
80.0900 4.7409
80.1000 5.2520
80.1100 7.1183
80.1200 6.7667
80.1300 2.3239
80.1400 2.5464
80.1500 4.8375
80.1600 4.3165
80.1700 3.1003
80.1800 2.6343
80.1900 3.2867
80.2000 3.0311
80.2100 3.2055
80.2200 3.3267
80.2300 6.1984
80.2400 4.5164
80.2500 9.6501
80.2600 3.2366
80.2700 5.3259
80.2800 5.9310
80.2900 5.0116
80.3000 6.8826
80.3100 9.2351
80.3200 4.3913
80.3300 3.9367
80.3400 5.4756
80.3500 5.3978
80.3600 9.8315
80.3700 6.6270
80.3800 4.5312
80.3900 3.1190
80.4000 3.1974
80.4100 7.1714
80.4200 0.1089
80.4300 1.9816
80.4400 4.2735
80.4500 4.1671
80.4600 2.9306
80.4700 4.4070
80.4800 9.4882
80.4900 5.4008
80.5000 5.1093
80.5100 4.8557
80.5200 1.3619
80.5300 8.0266
80.5400 4.2364
80.5500 5.0570
80.5600 2.8354
80.5700 4.7725
80.5800 5.7683
80.5900 4.4809
80.6000 2.7997
80.6100 5.0031
80.6200 3.4109
80.6300 2.9434
80.6400 3.2070
80.6500 6.8783
80.6600 2.3097
80.6700 4.4516
80.6800 4.8037
80.6900 2.1576
80.7000 3.1047
80.7100 3.1465
80.7200 7.7587
80.7300 4.7001
80.7400 4.0023
80.7500 3.2788
80.7600 2.8131
80.7700 2.4572
80.7800 6.1592
80.7900 9.3652
80.8000 3.1788
80.8100 4.5093
80.8200 2.5448
80.8300 3.2976
80.8400 2.3605
80.8500 4.4733
80.8600 7.1892
80.8700 4.3909
80.8800 2.6822
80.8900 3.3023
80.9000 6.1375
80.9100 2.8358
80.9200 6.2700
80.9300 7.0993
80.9400 3.4312
80.9500 4.0925
80.9600 3.2392
80.9700 1.6369
80.9800 2.6595
80.9900 3.1191
81.0000 2.1553
81.0100 7.0554
81.0200 6.8378
81.0300 7.2556
81.0400 3.3449
81.0500 4.2828
81.0600 3.2943
81.0700 4.5124
81.0800 3.0063
81.0900 2.1984
81.1000 6.7295
81.1100 2.8246
81.1200 8.5824
81.1300 3.5853
81.1400 7.3630
81.1500 7.8045
81.1600 4.2923
81.1700 2.9607
81.1800 1.1509
81.1900 2.0679
81.2000 4.2276
81.2100 3.1447
81.2200 6.9857
81.2300 1.5752
81.2400 10.2963
81.2500 3.4894
81.2600 1.1204
81.2700 2.1635
81.2800 2.2936
81.2900 4.5559
81.3000 2.7398
81.3100 4.5504
81.3200 6.4444
81.3300 5.0393
81.3400 6.5471
81.3500 3.4310
81.3600 2.0469
81.3700 5.2541
81.3800 6.3160
81.3900 4.5241
81.4000 4.6458
81.4100 8.0995
81.4200 6.7595
81.4300 7.2209
81.4400 1.5437
81.4500 3.4109
81.4600 6.3353
81.4700 7.4494
81.4800 6.4599
81.4900 3.6426
81.5000 2.8776
81.5100 4.4952
81.5200 3.5338
81.5300 4.2678
81.5400 4.4896
81.5500 6.9190
81.5600 4.2636
81.5700 3.8823
81.5800 4.4457
81.5900 4.0487
81.6000 6.8176
81.6100 4.2414
81.6200 8.7853
81.6300 1.9952
81.6400 2.6131
81.6500 4.7936
81.6600 6.7811
81.6700 9.6088
81.6800 4.9455
81.6900 8.0217
81.7000 3.3329
81.7100 7.1035
81.7200 6.7886
81.7300 11.0785
81.7400 5.3367
81.7500 6.0557
81.7600 7.6722
81.7700 5.0365
81.7800 10.6478
81.7900 10.7554
81.8000 10.1394
81.8100 6.1360
81.8200 6.6303
81.8300 10.4933
81.8400 8.2777
81.8500 11.1130
81.8600 10.1226
81.8700 9.7017
81.8800 12.1470
81.8900 8.3200
81.9000 11.2364
81.9100 12.7555
81.9200 9.2471
81.9300 13.5563
81.9400 12.9601
81.9500 17.9513
81.9600 15.7812
81.9700 14.5374
81.9800 18.1734
81.9900 12.3555
82.0000 25.0747
82.0100 16.9243
82.0200 20.5629
82.0300 22.9661
82.0400 27.0370
82.0500 23.8557
82.0600 27.6874
82.0700 18.1007
82.0800 14.5807
82.0900 14.7966
82.1000 14.2353
82.1100 16.6486
82.1200 24.7637
82.1300 28.9090
82.1400 14.5329
82.1500 10.6072
82.1600 26.4163
82.1700 23.2592
82.1800 22.6310
82.1900 18.6266
82.2000 18.2426
82.2100 25.9831
82.2200 11.9073
82.2300 20.3268
82.2400 24.3532
82.2500 10.2725
82.2600 17.6598
82.2700 15.1806
82.2800 16.9139
82.2900 16.1392
82.3000 10.5263
82.3100 15.3049
82.3200 17.3614
82.3300 11.3997
82.3400 11.5241
82.3500 13.0043
82.3600 8.2292
82.3700 8.8124
82.3800 9.5264
82.3900 12.1567
82.4000 8.9501
82.4100 17.2376
82.4200 9.9273
82.4300 8.6369
82.4400 2.1063
82.4500 5.2605
82.4600 8.7687
82.4700 7.8144
82.4800 10.5887
82.4900 9.3809
82.5000 6.7982
82.5100 10.0811
82.5200 12.5497
82.5300 8.4037
82.5400 8.6304
82.5500 6.2136
82.5600 2.7862
82.5700 5.4337
82.5800 8.6993
82.5900 6.6536
82.6000 3.1572
82.6100 6.0881
82.6200 3.4532
82.6300 3.0527
82.6400 3.5164
82.6500 3.6258
82.6600 8.5841
82.6700 9.6626
82.6800 5.7472
82.6900 6.0815
82.7000 2.6028
82.7100 5.0423
82.7200 5.4142
82.7300 2.6848
82.7400 5.9218
82.7500 5.5087
82.7600 10.7992
82.7700 7.1149
82.7800 5.9949
82.7900 6.8084
82.8000 2.1189
82.8100 5.6287
82.8200 3.3500
82.8300 1.9082
82.8400 3.1624
82.8500 4.1537
82.8600 3.4433
82.8700 5.8408
82.8800 4.5291
82.8900 4.0934
82.9000 4.5187
82.9100 4.4196
82.9200 4.3503
82.9300 5.6300
82.9400 4.8624
82.9500 6.0376
82.9600 4.0167
82.9700 5.4200
82.9800 3.4711
82.9900 5.2689
83.0000 0.9283
83.0100 2.0758
83.0200 7.8211
83.0300 8.1731
83.0400 6.4679
83.0500 5.5861
83.0600 5.0944
83.0700 1.9480
83.0800 2.1445
83.0900 4.4953
83.1000 2.6973
83.1100 4.8944
83.1200 5.4273
83.1300 6.1804
83.1400 3.5717
83.1500 5.3412
83.1600 7.2560
83.1700 2.4315
83.1800 6.6951
83.1900 5.4330
83.2000 5.2468
83.2100 2.8102
83.2200 2.0958
83.2300 6.2473
83.2400 5.0531
83.2500 6.2885
83.2600 4.2789
83.2700 3.0957
83.2800 4.2502
83.2900 3.3726
83.3000 2.6672
83.3100 7.3358
83.3200 5.5002
83.3300 5.7005
83.3400 4.2756
83.3500 3.4823
83.3600 4.3516
83.3700 4.4595
83.3800 4.7071
83.3900 2.0120
83.4000 2.7989
83.4100 5.7900
83.4200 5.2869
83.4300 2.1621
83.4400 8.2700
83.4500 4.3582
83.4600 2.9903
83.4700 5.8673
83.4800 6.4790
83.4900 5.2965
83.5000 2.3478
83.5100 4.5234
83.5200 5.3134
83.5300 1.1467
83.5400 2.0875
83.5500 4.4237
83.5600 7.4632
83.5700 3.4709
83.5800 2.1929
83.5900 7.0514
83.6000 4.1419
83.6100 5.8315
83.6200 3.5037
83.6300 4.6746
83.6400 4.0847
83.6500 3.7373
83.6600 6.1342
83.6700 8.6279
83.6800 3.8976
83.6900 6.0142
83.7000 3.2461
83.7100 4.2729
83.7200 2.9115
83.7300 5.9648
83.7400 2.4970
83.7500 4.2761
83.7600 4.0197
83.7700 1.4379
83.7800 4.0061
83.7900 4.2752
83.8000 5.3475
83.8100 6.2580
83.8200 3.2875
83.8300 3.1209
83.8400 3.1534
83.8500 2.0896
83.8600 5.7995
83.8700 6.3441
83.8800 3.0676
83.8900 3.1402
83.9000 2.9949
83.9100 6.0809
83.9200 2.2860
83.9300 5.2432
83.9400 6.9668
83.9500 2.7221
83.9600 2.0709
83.9700 4.7387
83.9800 6.3601
83.9900 4.1380
84.0000 2.1534
84.0100 0.9454
84.0200 1.0971
84.0300 4.1843
84.0400 8.2519
84.0500 4.5321
84.0600 4.3335
84.0700 6.7523
84.0800 10.1634
84.0900 3.3150
84.1000 3.0383
84.1100 4.8555
84.1200 4.2508
84.1300 4.3116
84.1400 7.9035
84.1500 9.3402
84.1600 6.2493
84.1700 4.6323
84.1800 5.1796
84.1900 6.6744
84.2000 3.6892
84.2100 6.8036
84.2200 7.0735
84.2300 2.1051
84.2400 7.0208
84.2500 2.1017
84.2600 5.5032
84.2700 5.2020
84.2800 5.6864
84.2900 4.2143
84.3000 7.2720
84.3100 3.3232
84.3200 5.3450
84.3300 4.0278
84.3400 3.9427
84.3500 4.0663
84.3600 4.6094
84.3700 3.6191
84.3800 3.9794
84.3900 3.8284
84.4000 8.7800
84.4100 6.6579
84.4200 4.5849
84.4300 4.2430
84.4400 3.1586
84.4500 1.2650
84.4600 4.1879
84.4700 3.9272
84.4800 2.0968
84.4900 2.1894
84.5000 2.5557
84.5100 5.5684
84.5200 8.7331
84.5300 7.9612
84.5400 4.6262
84.5500 1.9960
84.5600 1.4698
84.5700 3.9130
84.5800 3.7423
84.5900 4.0711
84.6000 3.2631
84.6100 2.8057
84.6200 6.0910
84.6300 6.8058
84.6400 4.6695
84.6500 5.0782
84.6600 5.4823
84.6700 6.6271
84.6800 3.9814
84.6900 2.7005
84.7000 4.2259
84.7100 4.1104
84.7200 3.4390
84.7300 1.8372
84.7400 2.6965
84.7500 5.0312
84.7600 2.5706
84.7700 9.3958
84.7800 4.9758
84.7900 4.6407
84.8000 4.8552
84.8100 2.1181
84.8200 5.0093
84.8300 3.2622
84.8400 2.4568
84.8500 3.2098
84.8600 8.8713
84.8700 4.2032
84.8800 4.1750
84.8900 4.1376
84.9000 1.7938
84.9100 8.3645
84.9200 5.7936
84.9300 2.1166
84.9400 2.7190
84.9500 3.7735
84.9600 0.4463
84.9700 5.0502
84.9800 3.9616
84.9900 5.9966
85.0000 4.7388
85.0100 7.1166
85.0200 5.3747
85.0300 5.2519
85.0400 3.0790
85.0500 5.8913
85.0600 3.1681
85.0700 4.1502
85.0800 2.0316
85.0900 4.1760
85.1000 2.9093
85.1100 4.3260
85.1200 1.7418
85.1300 2.6299
85.1400 1.5317
85.1500 2.1033
85.1600 6.6458
85.1700 3.6790
85.1800 6.3342
85.1900 7.6186
85.2000 4.9341
85.2100 4.1083
85.2200 2.8503
85.2300 2.6759
85.2400 4.8339
85.2500 5.6900
85.2600 4.7748
85.2700 4.3215
85.2800 2.1111
85.2900 3.0662
85.3000 4.9184
85.3100 2.3195
85.3200 3.5211
85.3300 2.9909
85.3400 5.5812
85.3500 4.3794
85.3600 3.8068
85.3700 7.8115
85.3800 7.9605
85.3900 3.5782
85.4000 11.3196
85.4100 6.1333
85.4200 3.9996
85.4300 4.2769
85.4400 3.6529
85.4500 5.6294
85.4600 3.6284
85.4700 5.4516
85.4800 7.8248
85.4900 6.2175
85.5000 6.2709
85.5100 5.0606
85.5200 2.3831
85.5300 3.9208
85.5400 1.1235
85.5500 3.0839
85.5600 3.2838
85.5700 3.9491
85.5800 2.7134
85.5900 1.4154
85.6000 5.8508
85.6100 2.1560
85.6200 4.1370
85.6300 2.7823
85.6400 1.4809
85.6500 3.0435
85.6600 3.2468
85.6700 6.5600
85.6800 3.9445
85.6900 4.2159
85.7000 6.1086
85.7100 5.3476
85.7200 4.2276
85.7300 2.3303
85.7400 5.0785
85.7500 1.7979
85.7600 2.0599
85.7700 6.8562
85.7800 4.3536
85.7900 1.1051
85.8000 3.9212
85.8100 4.2589
85.8200 2.1513
85.8300 6.0069
85.8400 6.5331
85.8500 5.1037
85.8600 6.3849
85.8700 3.4684
85.8800 2.5681
85.8900 1.8519
85.9000 7.6604
85.9100 2.6560
85.9200 3.7440
85.9300 1.2548
85.9400 4.5546
85.9500 5.4255
85.9600 2.8444
85.9700 5.7430
85.9800 2.1433
85.9900 4.1155
86.0000 2.8715
86.0100 3.2841
86.0200 3.0794
86.0300 4.1884
86.0400 3.3411
86.0500 3.9068
86.0600 1.5081
86.0700 2.8088
86.0800 6.1883
86.0900 6.1274
86.1000 4.3710
86.1100 5.2154
86.1200 2.4387
86.1300 3.9273
86.1400 7.2702
86.1500 2.7947
86.1600 2.2964
86.1700 1.7915
86.1800 7.1604
86.1900 2.6758
86.2000 5.1731
86.2100 4.2794
86.2200 7.0869
86.2300 7.4321
86.2400 2.4904
86.2500 2.2268
86.2600 5.8479
86.2700 3.1046
86.2800 3.5939
86.2900 0.0000
86.3000 2.1899
86.3100 3.4883
86.3200 3.7140
86.3300 3.2546
86.3400 3.9619
86.3500 2.1453
86.3600 2.9466
86.3700 2.6002
86.3800 3.5650
86.3900 7.4348
86.4000 6.1555
86.4100 4.5197
86.4200 0.3789
86.4300 3.0327
86.4400 8.6486
86.4500 4.3873
86.4600 5.1430
86.4700 3.9300
86.4800 3.7870
86.4900 2.0607
86.5000 3.8904
86.5100 4.1670
86.5200 3.2159
86.5300 2.5693
86.5400 6.7852
86.5500 4.2286
86.5600 2.3766
86.5700 5.2595
86.5800 1.9078
86.5900 3.9991
86.6000 2.8757
86.6100 6.1257
86.6200 4.1723
86.6300 2.1217
86.6400 2.7363
86.6500 1.3250
86.6600 4.0367
86.6700 4.0185
86.6800 1.2540
86.6900 4.8271
86.7000 5.9091
86.7100 4.7243
86.7200 5.0834
86.7300 4.1939
86.7400 6.0909
86.7500 1.5873
86.7600 2.0795
86.7700 3.0995
86.7800 2.9200
86.7900 3.6010
86.8000 3.3563
86.8100 1.8049
86.8200 3.1712
86.8300 4.0744
86.8400 6.1700
86.8500 4.4184
86.8600 2.8334
86.8700 1.1584
86.8800 6.0683
86.8900 4.6248
86.9000 4.5846
86.9100 3.9450
86.9200 4.1489
86.9300 3.1288
86.9400 2.7392
86.9500 5.5301
86.9600 2.2431
86.9700 4.7099
86.9800 6.4857
86.9900 2.4778
87.0000 4.1864
87.0100 1.5475
87.0200 3.7985
87.0300 5.0065
87.0400 5.6844
87.0500 1.8865
87.0600 7.9853
87.0700 8.7923
87.0800 6.1175
87.0900 2.1170
87.1000 4.3478
87.1100 6.2713
87.1200 5.4282
87.1300 6.9258
87.1400 0.9908
87.1500 1.1834
87.1600 6.7808
87.1700 4.3281
87.1800 3.9716
87.1900 4.9138
87.2000 2.1353
87.2100 1.9706
87.2200 1.7515
87.2300 0.0000
87.2400 0.9579
87.2500 4.0423
87.2600 4.2755
87.2700 5.8512
87.2800 4.3417
87.2900 5.3752
87.3000 4.5707
87.3100 7.1108
87.3200 4.7506
87.3300 8.7797
87.3400 3.0941
87.3500 8.1786
87.3600 3.1369
87.3700 0.4192
87.3800 5.4174
87.3900 4.9672
87.4000 6.1289
87.4100 5.1396
87.4200 2.8742
87.4300 8.5956
87.4400 5.8549
87.4500 2.8465
87.4600 6.1569
87.4700 5.6685
87.4800 6.6826
87.4900 7.7186
87.5000 3.5390
87.5100 4.2040
87.5200 4.1463
87.5300 5.0892
87.5400 6.0089
87.5500 2.7862
87.5600 0.4833
87.5700 4.2095
87.5800 2.5881
87.5900 2.5462
87.6000 1.8856
87.6100 4.0403
87.6200 5.1624
87.6300 8.0658
87.6400 3.8149
87.6500 5.9960
87.6600 3.8811
87.6700 6.2658
87.6800 4.9074
87.6900 3.8282
87.7000 4.9435
87.7100 5.3743
87.7200 6.0722
87.7300 8.0605
87.7400 2.3019
87.7500 3.9527
87.7600 5.3934
87.7700 4.2189
87.7800 3.2368
87.7900 6.5420
87.8000 7.9459
87.8100 6.6401
87.8200 5.3123
87.8300 8.2321
87.8400 4.0041
87.8500 0.9188
87.8600 3.4985
87.8700 2.0715
87.8800 4.1398
87.8900 6.0243
87.9000 2.2953
87.9100 4.3878
87.9200 3.2863
87.9300 5.3962
87.9400 4.0949
87.9500 3.1228
87.9600 4.1722
87.9700 8.4762
87.9800 5.7356
87.9900 4.9708
88.0000 3.9736
88.0100 2.9985
88.0200 8.0148
88.0300 4.6761
88.0400 4.0905
88.0500 0.3353
88.0600 4.4071
88.0700 4.3702
88.0800 5.9301
88.0900 7.1900
88.1000 5.1847
88.1100 5.2991
88.1200 2.4564
88.1300 3.0381
88.1400 2.2619
88.1500 2.2512
88.1600 8.0031
88.1700 4.1182
88.1800 2.6865
88.1900 2.3287
88.2000 3.6546
88.2100 5.4635
88.2200 6.8992
88.2300 4.3640
88.2400 2.9742
88.2500 1.1670
88.2600 3.1298
88.2700 3.1167
88.2800 4.7241
88.2900 1.6254
88.3000 3.9202
88.3100 3.2500
88.3200 4.9035
88.3300 8.1155
88.3400 6.9270
88.3500 6.0954
88.3600 3.2600
88.3700 5.9261
88.3800 3.1981
88.3900 1.6230
88.4000 8.3113
88.4100 4.2123
88.4200 7.8635
88.4300 3.5745
88.4400 2.6153
88.4500 3.8036
88.4600 2.3001
88.4700 1.0452
88.4800 6.2989
88.4900 4.2513
88.5000 3.4477
88.5100 3.3103
88.5200 4.2926
88.5300 6.6093
88.5400 0.7207
88.5500 2.6706
88.5600 3.3077
88.5700 8.0746
88.5800 6.0037
88.5900 1.3331
88.6000 5.8713
88.6100 3.8781
88.6200 5.6938
88.6300 6.9146
88.6400 6.6869
88.6500 3.8100
88.6600 4.0509
88.6700 4.2888
88.6800 3.0904
88.6900 5.2232
88.7000 3.7044
88.7100 5.2086
88.7200 2.2588
88.7300 3.1576
88.7400 6.1230
88.7500 2.9022
88.7600 4.0261
88.7700 6.4478
88.7800 3.8755
88.7900 6.1015
88.8000 4.6249
88.8100 5.8914
88.8200 5.5470
88.8300 5.1523
88.8400 5.1487
88.8500 2.9058
88.8600 3.0362
88.8700 4.0381
88.8800 5.0274
88.8900 3.2291
88.9000 1.1347
88.9100 1.2941
88.9200 2.8331
88.9300 6.3273
88.9400 2.6163
88.9500 3.3009
88.9600 6.7931
88.9700 6.1142
88.9800 4.3905
88.9900 5.2733
89.0000 5.1811
89.0100 3.2052
89.0200 5.6282
89.0300 4.5026
89.0400 4.9800
89.0500 2.2118
89.0600 4.6272
89.0700 3.6978
89.0800 1.8525
89.0900 9.8033
89.1000 3.4442
89.1100 4.1925
89.1200 6.3049
89.1300 3.3195
89.1400 4.4112
89.1500 2.7166
89.1600 5.5119
89.1700 4.9616
89.1800 2.3975
89.1900 6.5090
89.2000 3.3153
89.2100 2.3164
89.2200 4.3012
89.2300 6.0020
89.2400 3.1537
89.2500 6.7576
89.2600 2.1710
89.2700 3.1533
89.2800 0.0000
89.2900 3.1615
89.3000 6.7969
89.3100 9.4448
89.3200 5.5359
89.3300 2.6604
89.3400 4.4100
89.3500 5.2307
89.3600 6.1033
89.3700 4.3180
89.3800 5.5189
89.3900 5.8568
89.4000 10.0808
89.4100 4.1685
89.4200 2.0977
89.4300 5.4694
89.4400 9.8662
89.4500 2.5298
89.4600 3.1888
89.4700 5.7812
89.4800 3.0714
89.4900 2.2990
89.5000 2.0092
89.5100 4.8172
89.5200 2.8314
89.5300 8.1136
89.5400 5.6908
89.5500 5.9192
89.5600 0.7015
89.5700 2.3604
89.5800 1.0801
89.5900 3.3790
89.6000 3.6604
89.6100 2.2364
89.6200 3.7376
89.6300 3.2723
89.6400 2.9131
89.6500 1.4314
89.6600 3.5028
89.6700 4.6481
89.6800 3.7937
89.6900 6.6047
89.7000 4.9511
89.7100 3.0367
89.7200 4.1030
89.7300 4.1105
89.7400 3.2892
89.7500 3.2210
89.7600 5.5291
89.7700 6.6350
89.7800 4.2395
89.7900 2.6202
89.8000 2.9393
89.8100 3.8621
89.8200 1.4411
89.8300 2.0555
89.8400 3.0855
89.8500 4.8547
89.8600 3.6662
89.8700 4.7165
89.8800 2.8250
89.8900 3.2922
89.9000 6.2521
89.9100 8.9341
89.9200 6.5801
89.9300 5.9209
89.9400 4.5612
89.9500 3.2743
89.9600 4.8891
89.9700 2.3510
89.9800 8.1104
89.9900 4.7344
90.0000 1.5601
90.0100 3.5606
90.0200 2.0394
90.0300 3.0235
90.0400 6.7084
90.0500 6.4056
90.0600 4.3493
90.0700 2.1216
90.0800 1.3265
90.0900 3.1182
90.1000 3.5756
90.1100 6.7914
90.1200 4.4191
90.1300 2.3071
90.1400 4.6167
90.1500 3.3565
90.1600 6.1635
90.1700 4.6473
90.1800 1.3529
90.1900 5.7505
90.2000 2.4865
90.2100 4.5684
90.2200 4.2359
90.2300 5.9434
90.2400 4.5354
90.2500 9.1630
90.2600 3.2669
90.2700 4.1304
90.2800 1.3326
90.2900 6.6983
90.3000 3.3000
90.3100 4.2529
90.3200 4.7916
90.3300 3.2837
90.3400 3.2515
90.3500 4.6526
90.3600 1.2717
90.3700 1.1419
90.3800 2.9671
90.3900 1.6873
90.4000 5.6870
90.4100 3.1480
90.4200 3.6461
90.4300 3.0879
90.4400 3.7319
90.4500 3.5234
90.4600 2.1239
90.4700 4.0587
90.4800 7.2896
90.4900 9.7030
90.5000 3.0471
90.5100 3.8963
90.5200 4.3057
90.5300 4.3201
90.5400 5.6892
90.5500 5.6560
90.5600 4.4093
90.5700 6.0860
90.5800 3.3498
90.5900 6.0052
90.6000 6.3824
90.6100 2.2041
90.6200 4.2102
90.6300 3.0835
90.6400 4.6441
90.6500 5.5426
90.6600 1.8200
90.6700 5.4825
90.6800 3.1726
90.6900 2.1649
90.7000 7.7233
90.7100 5.9683
90.7200 4.5308
90.7300 4.8073
90.7400 4.9528
90.7500 6.6156
90.7600 10.9516
90.7700 3.3399
90.7800 2.5757
90.7900 2.8751
90.8000 4.3677
90.8100 3.6973
90.8200 1.9570
90.8300 10.5334
90.8400 3.6085
90.8500 7.8105
90.8600 5.7004
90.8700 3.5722
90.8800 2.3699
90.8900 1.0946
90.9000 6.4422
90.9100 7.7878
90.9200 2.7416
90.9300 4.7216
90.9400 3.7148
90.9500 4.0614
90.9600 4.0967
90.9700 4.2957
90.9800 5.1473
90.9900 1.5103
91.0000 2.0496
91.0100 1.1850
91.0200 5.0495
91.0300 4.2684
91.0400 2.8541
91.0500 3.2870
91.0600 5.2137
91.0700 5.6020
91.0800 4.4486
91.0900 2.8688
91.1000 5.0761
91.1100 4.2280
91.1200 6.3213
91.1300 1.3305
91.1400 2.1704
91.1500 6.8331
91.1600 4.0777
91.1700 5.3430
91.1800 0.9336
91.1900 3.5367
91.2000 5.8664
91.2100 1.4980
91.2200 3.0166
91.2300 0.9760
91.2400 1.4144
91.2500 2.8322
91.2600 3.0612
91.2700 2.5782
91.2800 3.6698
91.2900 2.6649
91.3000 5.9127
91.3100 4.3365
91.3200 5.1416
91.3300 7.1354
91.3400 5.3687
91.3500 4.7296
91.3600 2.6395
91.3700 4.1443
91.3800 3.1545
91.3900 4.4176
91.4000 1.4364
91.4100 5.9791
91.4200 1.2808
91.4300 0.1133
91.4400 2.3830
91.4500 5.9842
91.4600 3.8464
91.4700 2.0251
91.4800 2.4771
91.4900 5.9385
91.5000 3.7876
91.5100 4.6718
91.5200 8.9495
91.5300 5.3228
91.5400 4.8621
91.5500 2.0592
91.5600 4.4130
91.5700 4.5187
91.5800 1.0673
91.5900 2.0922
91.6000 8.6097
91.6100 6.1401
91.6200 4.1673
91.6300 5.0722
91.6400 3.4126
91.6500 4.0533
91.6600 8.5018
91.6700 3.4379
91.6800 5.3330
91.6900 5.0206
91.7000 5.8328
91.7100 3.8277
91.7200 4.0331
91.7300 4.4366
91.7400 3.6042
91.7500 2.0891
91.7600 5.6174
91.7700 1.0688
91.7800 4.0152
91.7900 4.1110
91.8000 3.0598
91.8100 2.0253
91.8200 5.7229
91.8300 2.4558
91.8400 3.2174
91.8500 1.8686
91.8600 4.5567
91.8700 6.8753
91.8800 3.9086
91.8900 4.3594
91.9000 3.7847
91.9100 6.3110
91.9200 4.4744
91.9300 7.2541
91.9400 5.3329
91.9500 5.2643
91.9600 3.4016
91.9700 2.9433
91.9800 4.3509
91.9900 9.6818
92.0000 5.6531
92.0100 5.4235
92.0200 4.3942
92.0300 0.6487
92.0400 6.9449
92.0500 3.8062
92.0600 0.2509
92.0700 3.1672
92.0800 4.2013
92.0900 2.6139
92.1000 5.0156
92.1100 2.3799
92.1200 1.5130
92.1300 7.9108
92.1400 4.9680
92.1500 7.8207
92.1600 5.4213
92.1700 4.9065
92.1800 2.1632
92.1900 2.0683
92.2000 1.7553
92.2100 0.7477
92.2200 1.6684
92.2300 3.7322
92.2400 5.8597
92.2500 2.9614
92.2600 2.7124
92.2700 3.2328
92.2800 4.8832
92.2900 2.4150
92.3000 4.3926
92.3100 7.9723
92.3200 6.7921
92.3300 4.7351
92.3400 3.8405
92.3500 6.6003
92.3600 1.4008
92.3700 4.1317
92.3800 4.1275
92.3900 9.1886
92.4000 3.3012
92.4100 4.5122
92.4200 6.5581
92.4300 7.4957
92.4400 6.0809
92.4500 4.0693
92.4600 2.6618
92.4700 5.4103
92.4800 0.4904
92.4900 5.0024
92.5000 3.8229
92.5100 8.2063
92.5200 1.3288
92.5300 4.0596
92.5400 8.9347
92.5500 4.2041
92.5600 1.4692
92.5700 6.5662
92.5800 3.6607
92.5900 2.0533
92.6000 4.0434
92.6100 2.0920
92.6200 1.9148
92.6300 9.6735
92.6400 2.2960
92.6500 4.5828
92.6600 3.6875
92.6700 1.4652
92.6800 6.2302
92.6900 9.9112
92.7000 3.1220
92.7100 2.9989
92.7200 1.0682
92.7300 3.5720
92.7400 2.4762
92.7500 1.6150
92.7600 1.2205
92.7700 2.5883
92.7800 2.2919
92.7900 3.7962
92.8000 4.8540
92.8100 3.8917
92.8200 5.2228
92.8300 6.3525
92.8400 4.7275
92.8500 1.9377
92.8600 7.2906
92.8700 5.5937
92.8800 5.0989
92.8900 4.2595
92.9000 4.1160
92.9100 4.0798
92.9200 4.3327
92.9300 4.4789
92.9400 7.0964
92.9500 5.6051
92.9600 9.7896
92.9700 9.8317
92.9800 4.6446
92.9900 5.3515
93.0000 8.0398
93.0100 5.2260
93.0200 8.0416
93.0300 4.5209
93.0400 4.3141
93.0500 2.1696
93.0600 4.8341
93.0700 4.8900
93.0800 2.5714
93.0900 6.5243
93.1000 1.5646
93.1100 3.8829
93.1200 2.0386
93.1300 5.0548
93.1400 4.2005
93.1500 1.8484
93.1600 3.4080
93.1700 4.6267
93.1800 1.6273
93.1900 5.1235
93.2000 2.0443
93.2100 2.8752
93.2200 7.0970
93.2300 2.2257
93.2400 3.2291
93.2500 2.8010
93.2600 3.9189
93.2700 3.9596
93.2800 3.3957
93.2900 2.1381
93.3000 4.2582
93.3100 3.6576
93.3200 1.9053
93.3300 0.1425
93.3400 5.8722
93.3500 1.2822
93.3600 6.9281
93.3700 8.0438
93.3800 8.0468
93.3900 7.8178
93.4000 6.6223
93.4100 5.7281
93.4200 8.3924
93.4300 1.6846
93.4400 5.8493
93.4500 5.3312
93.4600 5.3781
93.4700 4.2512
93.4800 0.0000
93.4900 5.7670
93.5000 9.7456
93.5100 3.9790
93.5200 1.3423
93.5300 1.8220
93.5400 7.9001
93.5500 3.2552
93.5600 3.1861
93.5700 3.8922
93.5800 5.2086
93.5900 2.4709
93.6000 2.6953
93.6100 6.2582
93.6200 3.9090
93.6300 5.0350
93.6400 5.6307
93.6500 8.1569
93.6600 4.1918
93.6700 4.0134
93.6800 2.7071
93.6900 4.3391
93.7000 2.9129
93.7100 6.1206
93.7200 6.3475
93.7300 5.1558
93.7400 4.1041
93.7500 3.0137
93.7600 3.1203
93.7700 1.2149
93.7800 3.3088
93.7900 5.0348
93.8000 2.8016
93.8100 0.9766
93.8200 2.6014
93.8300 3.4644
93.8400 3.6926
93.8500 4.3522
93.8600 7.1018
93.8700 3.7532
93.8800 0.2840
93.8900 3.3916
93.9000 4.9433
93.9100 4.1777
93.9200 7.6520
93.9300 3.0211
93.9400 3.0483
93.9500 3.1372
93.9600 3.7484
93.9700 6.2629
93.9800 1.5778
93.9900 13.5210
94.0000 7.6975
94.0100 5.0219
94.0200 3.7045
94.0300 1.8323
94.0400 3.5427
94.0500 5.5690
94.0600 3.7996
94.0700 5.0576
94.0800 4.0539
94.0900 4.5850
94.1000 7.4039
94.1100 3.7317
94.1200 5.2174
94.1300 5.4580
94.1400 2.6161
94.1500 3.0671
94.1600 3.0836
94.1700 2.9421
94.1800 5.0029
94.1900 0.1598
94.2000 1.9799
94.2100 3.0454
94.2200 4.7198
94.2300 5.3148
94.2400 5.2874
94.2500 2.4438
94.2600 2.7767
94.2700 4.2768
94.2800 1.8299
94.2900 1.0767
94.3000 7.2986
94.3100 6.0437
94.3200 3.9022
94.3300 3.2220
94.3400 4.2175
94.3500 4.8262
94.3600 2.2444
94.3700 2.5357
94.3800 5.2159
94.3900 3.2895
94.4000 3.0529
94.4100 3.0784
94.4200 2.4676
94.4300 7.2705
94.4400 4.8939
94.4500 2.6695
94.4600 4.5356
94.4700 4.7350
94.4800 5.7316
94.4900 7.5660
94.5000 2.6304
94.5100 5.3078
94.5200 1.6640
94.5300 4.2647
94.5400 5.4868
94.5500 4.1273
94.5600 1.4994
94.5700 4.2532
94.5800 0.9925
94.5900 0.0000
94.6000 0.0000
94.6100 6.8834
94.6200 1.4014
94.6300 7.4485
94.6400 5.8645
94.6500 4.4907
94.6600 4.2315
94.6700 2.6616
94.6800 3.4458
94.6900 6.3841
94.7000 2.8423
94.7100 2.8071
94.7200 5.1645
94.7300 4.2449
94.7400 5.8553
94.7500 5.0512
94.7600 5.1580
94.7700 4.7159
94.7800 3.8253
94.7900 1.0947
94.8000 2.9575
94.8100 4.5629
94.8200 3.5487
94.8300 0.2234
94.8400 4.1724
94.8500 5.5194
94.8600 6.1886
94.8700 3.7073
94.8800 4.7602
94.8900 3.5360
94.9000 3.2891
94.9100 1.8885
94.9200 3.0780
94.9300 1.0767
94.9400 3.1667
94.9500 5.8273
94.9600 3.0784
94.9700 2.0892
94.9800 1.5617
94.9900 1.6079
95.0000 4.1212
95.0100 2.6655
95.0200 6.5396
95.0300 4.5502
95.0400 6.0695
95.0500 4.7600
95.0600 5.2402
95.0700 5.4563
95.0800 3.3329
95.0900 7.4272
95.1000 8.7018
95.1100 2.4557
95.1200 5.0601
95.1300 1.6286
95.1400 8.5923
95.1500 5.9749
95.1600 3.2904
95.1700 2.1589
95.1800 4.5358
95.1900 4.2776
95.2000 5.6531
95.2100 2.8455
95.2200 1.5592
95.2300 6.9552
95.2400 6.1759
95.2500 5.0118
95.2600 3.5933
95.2700 3.8747
95.2800 5.2040
95.2900 3.7597
95.3000 7.7978
95.3100 5.3322
95.3200 6.9110
95.3300 7.2621
95.3400 5.3932
95.3500 4.1760
95.3600 3.1780
95.3700 3.0715
95.3800 3.8382
95.3900 1.9588
95.4000 4.2499
95.4100 2.6682
95.4200 5.5360
95.4300 4.9102
95.4400 4.1482
95.4500 6.0496
95.4600 2.2372
95.4700 5.4786
95.4800 3.5299
95.4900 2.6521
95.5000 5.0366
95.5100 4.6360
95.5200 2.5123
95.5300 2.3904
95.5400 4.2902
95.5500 6.8485
95.5600 4.5417
95.5700 5.2768
95.5800 6.5770
95.5900 2.6418
95.6000 2.1300
95.6100 3.0377
95.6200 5.0365
95.6300 3.1383
95.6400 3.3856
95.6500 7.0796
95.6600 9.3627
95.6700 3.3465
95.6800 4.0592
95.6900 2.9196
95.7000 5.9528
95.7100 5.9386
95.7200 4.7609
95.7300 2.5973
95.7400 4.8695
95.7500 6.2559
95.7600 2.2327
95.7700 2.9842
95.7800 4.1460
95.7900 2.9997
95.8000 2.6646
95.8100 2.7468
95.8200 3.7425
95.8300 4.4864
95.8400 5.5148
95.8500 4.1688
95.8600 5.8536
95.8700 3.2311
95.8800 3.3029
95.8900 6.3602
95.9000 4.0993
95.9100 3.4930
95.9200 2.3686
95.9300 2.7494
95.9400 5.1112
95.9500 2.4681
95.9600 1.8327
95.9700 6.0491
95.9800 11.0045
95.9900 11.1170
96.0000 2.2817
96.0100 4.6646
96.0200 3.6010
96.0300 3.6520
96.0400 4.6424
96.0500 4.5207
96.0600 4.8285
96.0700 8.8817
96.0800 6.2333
96.0900 2.1610
96.1000 1.9665
96.1100 0.2046
96.1200 1.7119
96.1300 4.6824
96.1400 6.0340
96.1500 2.7027
96.1600 3.6671
96.1700 6.9818
96.1800 4.4605
96.1900 3.7892
96.2000 8.2919
96.2100 9.4538
96.2200 4.6151
96.2300 3.3449
96.2400 8.0632
96.2500 6.4128
96.2600 2.2254
96.2700 6.3314
96.2800 1.5939
96.2900 5.4542
96.3000 9.4288
96.3100 3.2795
96.3200 2.5111
96.3300 5.0268
96.3400 3.2379
96.3500 2.3523
96.3600 2.6007
96.3700 2.1001
96.3800 4.4230
96.3900 6.1823
96.4000 10.2797
96.4100 5.6290
96.4200 3.0303
96.4300 4.3128
96.4400 5.8536
96.4500 4.4847
96.4600 6.2973
96.4700 3.8620
96.4800 5.4044
96.4900 2.1181
96.5000 6.1913
96.5100 7.1199
96.5200 4.9606
96.5300 2.1083
96.5400 5.0667
96.5500 4.6846
96.5600 6.7467
96.5700 5.1285
96.5800 4.2563
96.5900 2.4205
96.6000 4.6021
96.6100 2.4459
96.6200 7.9029
96.6300 6.2576
96.6400 5.2640
96.6500 3.3155
96.6600 4.6432
96.6700 5.4586
96.6800 7.5344
96.6900 4.6971
96.7000 4.5967
96.7100 4.3589
96.7200 2.1651
96.7300 3.3147
96.7400 4.0791
96.7500 6.4638
96.7600 6.8053
96.7700 4.9944
96.7800 1.7515
96.7900 5.3429
96.8000 4.6344
96.8100 3.4460
96.8200 5.2075
96.8300 3.1346
96.8400 3.1845
96.8500 2.8222
96.8600 5.6609
96.8700 3.9184
96.8800 3.2138
96.8900 5.3122
96.9000 5.5746
96.9100 3.9915
96.9200 5.5672
96.9300 4.3574
96.9400 3.1147
96.9500 3.4067
96.9600 5.1295
96.9700 7.5892
96.9800 4.9702
96.9900 6.0321
97.0000 2.0933
97.0100 2.0409
97.0200 4.1862
97.0300 3.0923
97.0400 4.2501
97.0500 3.0174
97.0600 4.2047
97.0700 4.5128
97.0800 6.6477
97.0900 2.9010
97.1000 3.4813
97.1100 4.4667
97.1200 3.8415
97.1300 6.1980
97.1400 1.3537
97.1500 3.8083
97.1600 4.2505
97.1700 4.3151
97.1800 3.4352
97.1900 4.5757
97.2000 6.8792
97.2100 3.5551
97.2200 4.1939
97.2300 4.1249
97.2400 5.7662
97.2500 1.3521
97.2600 3.1307
97.2700 4.4583
97.2800 4.5113
97.2900 5.9140
97.3000 2.8390
97.3100 6.2160
97.3200 6.3856
97.3300 4.9531
97.3400 2.2383
97.3500 3.9958
97.3600 1.2746
97.3700 2.9979
97.3800 2.7865
97.3900 5.9903
97.4000 4.9425
97.4100 5.3837
97.4200 2.0990
97.4300 4.0888
97.4400 7.7426
97.4500 3.0124
97.4600 2.0541
97.4700 5.2487
97.4800 2.3047
97.4900 5.4264
97.5000 5.8010
97.5100 3.5601
97.5200 8.1568
97.5300 6.0191
97.5400 8.2671
97.5500 7.8643
97.5600 4.8809
97.5700 0.9688
97.5800 2.3452
97.5900 7.0339
97.6000 5.6114
97.6100 3.3358
97.6200 3.2525
97.6300 3.7908
97.6400 1.9734
97.6500 4.9256
97.6600 3.2038
97.6700 4.1740
97.6800 4.0442
97.6900 5.3077
97.7000 3.8823
97.7100 3.7086
97.7200 6.7594
97.7300 7.4290
97.7400 2.6243
97.7500 5.1664
97.7600 8.0639
97.7700 3.3394
97.7800 4.9718
97.7900 6.1294
97.8000 2.1277
97.8100 3.9224
97.8200 2.3906
97.8300 5.5917
97.8400 7.3827
97.8500 3.8296
97.8600 5.9317
97.8700 4.9604
97.8800 3.9781
97.8900 1.4002
97.9000 8.1054
97.9100 3.9922
97.9200 4.1628
97.9300 4.9368
97.9400 6.0287
97.9500 7.2968
97.9600 6.5348
97.9700 3.6420
97.9800 2.8359
97.9900 8.9759
98.0000 5.2250
98.0100 8.1444
98.0200 4.5701
98.0300 4.5228
98.0400 6.6033
98.0500 2.6350
98.0600 2.0873
98.0700 3.0539
98.0800 1.3025
98.0900 3.6841
98.1000 3.4602
98.1100 1.3357
98.1200 2.7468
98.1300 3.7429
98.1400 5.7581
98.1500 4.9514
98.1600 8.5410
98.1700 6.0031
98.1800 6.1671
98.1900 7.6932
98.2000 8.3244
98.2100 6.0661
98.2200 10.4622
98.2300 7.4040
98.2400 6.7663
98.2500 8.6979
98.2600 11.9972
98.2700 10.5491
98.2800 4.0630
98.2900 9.6877
98.3000 11.1157
98.3100 7.7822
98.3200 9.3467
98.3300 6.1934
98.3400 7.9734
98.3500 6.9983
98.3600 14.5088
98.3700 12.4138
98.3800 13.3239
98.3900 8.7136
98.4000 4.2669
98.4100 5.0346
98.4200 12.3228
98.4300 9.4885
98.4400 9.9127
98.4500 5.2309
98.4600 14.5751
98.4700 7.2374
98.4800 8.8914
98.4900 13.2250
98.5000 15.0370
98.5100 9.8890
98.5200 13.3386
98.5300 12.2600
98.5400 13.4220
98.5500 11.7491
98.5600 9.5410
98.5700 6.6480
98.5800 12.8504
98.5900 12.7877
98.6000 12.9472
98.6100 13.0810
98.6200 12.2476
98.6300 12.6192
98.6400 9.5169
98.6500 11.5168
98.6600 11.2239
98.6700 11.3973
98.6800 15.8379
98.6900 8.5454
98.7000 14.5045
98.7100 14.0273
98.7200 14.7348
98.7300 13.4117
98.7400 14.4901
98.7500 12.6269
98.7600 14.4068
98.7700 14.8398
98.7800 13.1525
98.7900 12.2927
98.8000 9.7921
98.8100 10.8020
98.8200 6.7556
98.8300 7.9555
98.8400 8.4870
98.8500 6.5268
98.8600 9.0404
98.8700 7.6680
98.8800 13.9477
98.8900 8.6433
98.9000 7.8469
98.9100 8.5902
98.9200 9.0026
98.9300 7.1844
98.9400 9.1294
98.9500 7.3961
98.9600 7.3881
98.9700 6.8320
98.9800 7.5627
98.9900 12.3589
99.0000 4.0990
99.0100 5.4698
99.0200 6.3109
99.0300 6.8810
99.0400 6.2599
99.0500 6.2343
99.0600 11.3167
99.0700 6.2525
99.0800 7.6871
99.0900 9.7549
99.1000 12.4149
99.1100 5.0791
99.1200 4.4572
99.1300 2.0605
99.1400 8.6355
99.1500 5.1388
99.1600 4.2977
99.1700 7.2437
99.1800 3.0318
99.1900 2.3798
99.2000 3.1605
99.2100 4.6397
99.2200 5.7729
99.2300 4.4033
99.2400 2.0478
99.2500 8.1143
99.2600 2.2090
99.2700 7.2055
99.2800 0.9581
99.2900 4.0532
99.3000 3.7588
99.3100 4.2014
99.3200 3.7298
99.3300 2.6263
99.3400 3.7736
99.3500 5.2953
99.3600 4.5643
99.3700 8.1970
99.3800 6.1933
99.3900 4.5685
99.4000 1.6292
99.4100 3.4889
99.4200 4.8568
99.4300 5.6640
99.4400 6.0427
99.4500 5.3039
99.4600 2.1875
99.4700 3.8355
99.4800 1.8441
99.4900 5.4053
99.5000 6.0222
99.5100 8.7488
99.5200 3.0068
99.5300 2.4175
99.5400 4.1189
99.5500 6.7905
99.5600 10.2580
99.5700 9.1436
99.5800 6.4205
99.5900 7.4498
99.6000 2.0475
99.6100 6.5963
99.6200 6.5571
99.6300 4.9666
99.6400 4.1364
99.6500 8.1379
99.6600 6.2476
99.6700 3.8718
99.6800 3.0086
99.6900 4.9372
99.7000 4.2272
99.7100 1.9533
99.7200 0.7854
99.7300 0.9824
99.7400 2.9393
99.7500 3.5735
99.7600 4.4237
99.7700 3.9421
99.7800 5.0512
99.7900 5.0289
99.8000 7.3466
99.8100 4.2294
99.8200 3.9690
99.8300 3.3174
99.8400 3.3510
99.8500 2.2842
99.8600 3.4815
99.8700 5.3193
99.8800 1.5764
99.8900 1.7891
99.9000 6.2178
99.9100 6.1608
99.9200 8.8222
99.9300 5.0212
99.9400 1.9781
99.9500 5.4976
99.9600 4.7011
99.9700 3.2952
99.9800 8.1388
99.9900 5.1780
100.0000 3.2098
100.0100 1.2682
100.0200 6.5577
100.0300 7.8182
100.0400 4.4782
100.0500 4.0515
100.0600 6.0629
100.0700 5.3260
100.0800 3.2885
100.0900 7.4615
100.1000 3.5873
100.1100 5.0017
100.1200 6.4082
100.1300 2.8341
100.1400 2.5824
100.1500 4.1799
100.1600 3.7146
100.1700 1.5560
100.1800 5.5513
100.1900 9.4290
100.2000 1.2658
100.2100 3.0352
100.2200 4.0941
100.2300 2.8730
100.2400 6.8866
100.2500 2.4613
100.2600 1.5326
100.2700 4.1387
100.2800 4.1103
100.2900 3.9116
100.3000 4.5553
100.3100 3.6107
100.3200 3.1259
100.3300 3.1224
100.3400 1.6944
100.3500 3.0869
100.3600 3.3025
100.3700 4.4280
100.3800 6.9107
100.3900 2.1055
100.4000 1.6863
100.4100 2.3301
100.4200 2.8174
100.4300 3.1173
100.4400 7.4724
100.4500 3.2543
100.4600 5.1840
100.4700 3.9898
100.4800 7.9141
100.4900 9.3817
100.5000 7.1403
100.5100 3.6980
100.5200 5.8769
100.5300 2.3478
100.5400 3.0773
100.5500 2.8673
100.5600 0.9714
100.5700 0.0000
100.5800 1.7933
100.5900 10.4318
100.6000 6.2538
100.6100 2.1524
100.6200 4.0081
100.6300 1.2518
100.6400 3.9605
100.6500 2.4469
100.6600 3.4194
100.6700 4.5962
100.6800 2.0659
100.6900 5.0769
100.7000 3.0618
100.7100 7.1192
100.7200 4.7379
100.7300 4.0409
100.7400 2.2438
100.7500 1.1138
100.7600 6.0195
100.7700 3.0118
100.7800 0.8192
100.7900 0.7213
100.8000 7.4408
100.8100 5.2378
100.8200 2.6982
100.8300 3.0908
100.8400 7.6486
100.8500 2.7731
100.8600 3.1122
100.8700 2.5107
100.8800 5.7494
100.8900 3.1366
100.9000 7.3465
100.9100 4.9572
100.9200 2.7450
100.9300 3.1069
100.9400 7.9236
100.9500 2.3510
100.9600 6.0863
100.9700 6.9542
100.9800 5.0390
100.9900 2.9479
101.0000 6.7828
101.0100 2.7426
101.0200 3.1399
101.0300 4.6128
101.0400 9.4410
101.0500 5.2577
101.0600 5.3275
101.0700 4.3430
101.0800 6.0994
101.0900 4.5802
101.1000 3.9653
101.1100 1.3641
101.1200 4.4242
101.1300 2.1109
101.1400 3.7653
101.1500 4.1743
101.1600 6.8686
101.1700 8.3741
101.1800 4.2438
101.1900 7.3311
101.2000 4.0129
101.2100 4.1955
101.2200 2.7604
101.2300 5.2763
101.2400 5.8452
101.2500 3.2548
101.2600 4.5236
101.2700 3.4034
101.2800 3.1861
101.2900 9.0682
101.3000 5.3684
101.3100 2.6251
101.3200 1.8177
101.3300 6.7609
101.3400 2.2275
101.3500 1.3754
101.3600 6.1918
101.3700 6.1406
101.3800 4.2120
101.3900 2.1173
101.4000 5.1526
101.4100 5.1545
101.4200 4.9848
101.4300 5.3209
101.4400 5.1401
101.4500 6.2637
101.4600 3.3793
101.4700 0.6014
101.4800 1.9248
101.4900 9.1317
101.5000 7.1327
101.5100 1.3092
101.5200 2.8040
101.5300 4.0791
101.5400 3.8120
101.5500 5.2551
101.5600 3.5204
101.5700 3.9603
101.5800 4.9874
101.5900 4.3553
101.6000 6.0452
101.6100 2.4198
101.6200 7.8687
101.6300 3.8605
101.6400 1.4709
101.6500 5.2008
101.6600 7.9070
101.6700 6.4240
101.6800 2.3860
101.6900 4.5914
101.7000 2.3829
101.7100 3.0524
101.7200 2.2145
101.7300 1.8071
101.7400 5.0059
101.7500 3.8236
101.7600 3.8226
101.7700 3.0210
101.7800 3.4338
101.7900 1.1523
101.8000 1.9048
101.8100 6.8445
101.8200 1.2638
101.8300 6.6494
101.8400 6.3622
101.8500 5.5381
101.8600 4.5015
101.8700 3.2301
101.8800 5.9909
101.8900 1.0376
101.9000 3.9760
101.9100 3.8840
101.9200 3.2877
101.9300 7.1622
101.9400 4.0681
101.9500 3.5554
101.9600 6.4765
101.9700 2.8202
101.9800 4.9310
101.9900 2.6707
102.0000 4.8145
102.0100 5.1992
102.0200 8.9684
102.0300 6.4197
102.0400 4.5400
102.0500 4.4299
102.0600 4.6034
102.0700 4.2548
102.0800 2.2381
102.0900 6.5057
102.1000 3.1950
102.1100 4.1184
102.1200 2.0696
102.1300 3.0882
102.1400 3.0948
102.1500 6.2354
102.1600 3.5291
102.1700 4.8006
102.1800 4.0676
102.1900 6.5583
102.2000 8.2210
102.2100 0.9667
102.2200 5.2173
102.2300 3.2866
102.2400 3.2706
102.2500 5.5999
102.2600 5.5785
102.2700 6.4934
102.2800 4.3819
102.2900 5.4687
102.3000 4.0135
102.3100 3.0455
102.3200 4.8175
102.3300 2.2573
102.3400 9.1431
102.3500 6.8598
102.3600 0.3695
102.3700 2.1332
102.3800 4.8760
102.3900 5.4166
102.4000 2.7153
102.4100 4.2458
102.4200 3.9415
102.4300 3.9846
102.4400 3.9602
102.4500 4.4887
102.4600 4.4701
102.4700 10.7692
102.4800 3.9018
102.4900 4.5081
102.5000 4.2715
102.5100 2.7873
102.5200 5.2136
102.5300 5.9499
102.5400 1.5354
102.5500 3.0932
102.5600 3.1716
102.5700 6.7842
102.5800 2.4098
102.5900 5.7200
102.6000 6.1109
102.6100 3.0168
102.6200 4.4976
102.6300 6.7379
102.6400 1.3518
102.6500 8.7704
102.6600 1.3256
102.6700 1.9085
102.6800 2.1572
102.6900 4.7729
102.7000 6.1527
102.7100 5.9562
102.7200 3.8036
102.7300 4.2345
102.7400 3.5623
102.7500 6.5615
102.7600 2.4612
102.7700 3.2837
102.7800 5.5642
102.7900 5.6108
102.8000 3.1802
102.8100 2.3040
102.8200 2.5045
102.8300 6.4426
102.8400 7.8499
102.8500 2.8679
102.8600 9.3460
102.8700 2.8737
102.8800 8.2099
102.8900 3.1045
102.9000 6.3463
102.9100 7.1223
102.9200 1.4433
102.9300 6.7837
102.9400 3.0848
102.9500 5.2014
102.9600 3.9308
102.9700 8.9142
102.9800 4.6928
102.9900 6.7968
103.0000 3.0829
103.0100 6.7736
103.0200 3.2080
103.0300 4.6153
103.0400 5.4104
103.0500 5.0598
103.0600 5.6089
103.0700 4.4812
103.0800 2.1349
103.0900 4.2435
103.1000 2.2942
103.1100 4.5253
103.1200 5.8997
103.1300 3.4794
103.1400 4.3295
103.1500 5.7429
103.1600 3.2101
103.1700 1.5076
103.1800 0.0000
103.1900 4.0889
103.2000 3.5081
103.2100 5.6796
103.2200 3.1520
103.2300 2.7904
103.2400 4.9935
103.2500 6.6746
103.2600 5.2769
103.2700 1.1742
103.2800 4.4726
103.2900 5.3208
103.3000 6.2551
103.3100 5.2200
103.3200 9.2944
103.3300 2.0186
103.3400 5.1760
103.3500 4.2762
103.3600 8.6983
103.3700 4.2751
103.3800 9.3885
103.3900 2.5581
103.4000 3.0834
103.4100 2.3486
103.4200 5.2083
103.4300 4.9979
103.4400 1.7301
103.4500 4.4395
103.4600 4.6018
103.4700 2.5338
103.4800 1.4627
103.4900 5.8513
103.5000 4.6053
103.5100 4.0214
103.5200 4.2827
103.5300 2.8772
103.5400 3.6789
103.5500 4.3765
103.5600 7.1196
103.5700 5.8240
103.5800 6.6519
103.5900 3.4595
103.6000 5.2783
103.6100 3.2288
103.6200 7.2311
103.6300 5.7179
103.6400 1.3134
103.6500 3.8429
103.6600 3.8471
103.6700 8.3703
103.6800 6.7709
103.6900 2.5703
103.7000 4.0224
103.7100 5.4782
103.7200 4.1652
103.7300 1.0949
103.7400 4.2389
103.7500 9.9230
103.7600 4.6015
103.7700 4.1475
103.7800 1.9563
103.7900 1.9428
103.8000 2.0596
103.8100 0.8640
103.8200 3.0179
103.8300 1.0415
103.8400 6.2209
103.8500 6.3545
103.8600 4.8104
103.8700 6.0097
103.8800 5.2768
103.8900 6.0330
103.9000 4.2120
103.9100 3.8798
103.9200 3.6953
103.9300 2.0017
103.9400 5.3874
103.9500 3.5197
103.9600 4.2881
103.9700 2.4543
103.9800 2.1416
103.9900 8.8622
104.0000 4.1584
104.0100 5.7421
104.0200 3.0385
104.0300 7.0288
104.0400 3.2648
104.0500 7.1838
104.0600 5.3646
104.0700 3.5892
104.0800 1.6826
104.0900 3.0226
104.1000 4.4952
104.1100 1.7638
104.1200 4.7701
104.1300 7.2147
104.1400 7.4290
104.1500 2.2320
104.1600 3.9299
104.1700 4.9706
104.1800 5.5427
104.1900 3.2332
104.2000 4.1409
104.2100 7.4727
104.2200 7.8658
104.2300 5.8651
104.2400 4.5130
104.2500 7.0545
104.2600 3.2089
104.2700 3.0971
104.2800 6.1099
104.2900 4.7803
104.3000 1.0688
104.3100 7.9599
104.3200 5.7981
104.3300 5.5466
104.3400 3.8253
104.3500 8.3878
104.3600 2.1982
104.3700 2.8551
104.3800 3.0268
104.3900 3.1459
104.4000 2.0197
104.4100 4.3529
104.4200 1.8836
104.4300 1.4701
104.4400 6.7470
104.4500 4.4530
104.4600 2.2132
104.4700 7.3770
104.4800 3.9712
104.4900 5.4556
104.5000 5.8496
104.5100 6.8282
104.5200 5.6726
104.5300 8.8227
104.5400 5.3472
104.5500 1.3747
104.5600 6.0021
104.5700 2.1451
104.5800 5.3154
104.5900 3.0752
104.6000 3.1303
104.6100 4.6037
104.6200 6.2627
104.6300 2.0487
104.6400 2.9896
104.6500 4.7222
104.6600 3.9872
104.6700 8.3274
104.6800 4.0782
104.6900 1.9148
104.7000 3.2490
104.7100 4.3775
104.7200 5.2467
104.7300 4.2841
104.7400 1.8458
104.7500 0.9926
104.7600 3.7885
104.7700 2.1227
104.7800 2.3735
104.7900 4.1636
104.8000 2.1531
104.8100 5.0160
104.8200 1.8864
104.8300 3.3971
104.8400 4.5340
104.8500 6.0512
104.8600 3.3398
104.8700 7.5787
104.8800 4.6268
104.8900 1.1597
104.9000 3.7678
104.9100 2.2928
104.9200 4.5387
104.9300 2.7344
104.9400 2.1513
104.9500 4.1942
104.9600 3.8374
104.9700 5.6169
104.9800 2.4036
104.9900 1.1653
105.0000 3.2223
105.0100 8.5073
105.0200 4.6015
105.0300 7.3947
105.0400 6.6174
105.0500 5.0828
105.0600 5.0929
105.0700 7.0333
105.0800 1.3206
105.0900 4.7465
105.1000 3.9784
105.1100 1.2098
105.1200 2.9152
105.1300 1.1478
105.1400 2.5861
105.1500 3.4944
105.1600 3.2420
105.1700 3.4682
105.1800 2.6158
105.1900 7.0758
105.2000 3.3738
105.2100 0.1846
105.2200 3.9552
105.2300 3.9695
105.2400 6.9609
105.2500 3.8110
105.2600 4.7200
105.2700 2.0297
105.2800 6.0943
105.2900 4.9656
105.3000 3.0221
105.3100 3.5493
105.3200 5.8050
105.3300 8.5836
105.3400 10.4546
105.3500 4.3046
105.3600 6.0214
105.3700 1.1966
105.3800 3.5060
105.3900 3.9717
105.4000 3.4881
105.4100 3.0788
105.4200 1.1702
105.4300 2.1970
105.4400 1.9767
105.4500 3.1206
105.4600 5.5362
105.4700 6.2221
105.4800 4.4316
105.4900 4.1809
105.5000 6.9323
105.5100 3.5854
105.5200 4.5463
105.5300 1.2340
105.5400 3.1210
105.5500 4.3873
105.5600 3.2000
105.5700 3.1427
105.5800 4.8129
105.5900 3.5833
105.6000 3.2211
105.6100 3.8255
105.6200 4.9755
105.6300 3.2729
105.6400 3.7949
105.6500 1.3243
105.6600 4.2237
105.6700 1.7993
105.6800 1.4998
105.6900 4.8778
105.7000 2.0863
105.7100 0.9471
105.7200 1.9632
105.7300 5.8738
105.7400 5.1946
105.7500 9.3999
105.7600 4.5773
105.7700 5.6496
105.7800 4.6486
105.7900 4.7724
105.8000 2.5045
105.8100 4.0300
105.8200 0.2369
105.8300 7.0154
105.8400 2.0041
105.8500 2.8157
105.8600 5.8575
105.8700 3.3386
105.8800 4.4407
105.8900 2.0712
105.9000 2.2283
105.9100 5.7865
105.9200 4.9733
105.9300 2.3548
105.9400 1.0945
105.9500 4.1847
105.9600 2.8209
105.9700 3.2399
105.9800 3.0836
105.9900 4.7467
106.0000 4.9540
106.0100 3.8468
106.0200 1.7651
106.0300 3.0490
106.0400 6.0720
106.0500 3.3579
106.0600 3.1260
106.0700 5.2335
106.0800 6.1210
106.0900 3.2019
106.1000 4.1205
106.1100 4.6193
106.1200 6.0634
106.1300 4.7722
106.1400 5.0544
106.1500 3.3557
106.1600 3.1234
106.1700 3.0386
106.1800 3.1265
106.1900 6.0579
106.2000 6.5331
106.2100 5.2695
106.2200 6.2509
106.2300 4.5979
106.2400 4.1754
106.2500 5.0310
106.2600 6.7691
106.2700 4.0651
106.2800 6.0811
106.2900 5.4641
106.3000 4.9836
106.3100 4.9355
106.3200 5.0976
106.3300 1.1177
106.3400 1.0977
106.3500 5.2025
106.3600 1.9839
106.3700 4.1200
106.3800 4.1776
106.3900 3.9870
106.4000 1.1120
106.4100 5.4789
106.4200 3.5619
106.4300 1.7467
106.4400 3.4491
106.4500 5.6219
106.4600 3.2178
106.4700 2.5743
106.4800 1.4393
106.4900 3.9872
106.5000 4.4431
106.5100 4.8726
106.5200 7.2938
106.5300 4.0100
106.5400 5.4776
106.5500 2.9940
106.5600 4.6828
106.5700 3.3489
106.5800 3.1010
106.5900 5.0647
106.6000 4.2362
106.6100 3.8625
106.6200 1.7266
106.6300 4.9815
106.6400 4.1951
106.6500 3.9186
106.6600 6.5942
106.6700 4.0840
106.6800 4.1858
106.6900 3.0890
106.7000 3.0267
106.7100 4.9139
106.7200 9.4515
106.7300 2.9135
106.7400 3.6961
106.7500 3.1767
106.7600 4.1464
106.7700 4.6576
106.7800 1.8308
106.7900 4.3665
106.8000 1.2720
106.8100 5.8754
106.8200 0.9977
106.8300 4.2113
106.8400 5.2494
106.8500 5.5319
106.8600 3.0342
106.8700 0.7518
106.8800 4.5518
106.8900 2.4497
106.9000 3.0806
106.9100 2.3337
106.9200 2.9556
106.9300 3.2685
106.9400 1.3514
106.9500 3.4964
106.9600 2.9413
106.9700 6.2871
106.9800 5.0413
106.9900 2.0996
107.0000 7.2365
107.0100 1.0781
107.0200 3.2066
107.0300 5.7733
107.0400 1.8462
107.0500 3.6092
107.0600 4.7110
107.0700 8.6562
107.0800 9.0195
107.0900 2.0948
107.1000 4.6304
107.1100 7.1535
107.1200 3.4588
107.1300 4.5985
107.1400 7.5638
107.1500 5.3626
107.1600 5.8618
107.1700 8.8254
107.1800 9.3845
107.1900 5.5636
107.2000 5.2708
107.2100 4.3141
107.2200 5.1414
107.2300 6.3907
107.2400 4.8222
107.2500 1.0662
107.2600 2.4420
107.2700 1.5944
107.2800 2.2335
107.2900 6.7781
107.3000 2.9242
107.3100 3.1520
107.3200 4.0579
107.3300 3.0383
107.3400 1.5380
107.3500 5.8538
107.3600 8.7820
107.3700 5.3439
107.3800 4.8541
107.3900 7.4280
107.4000 2.3249
107.4100 1.6435
107.4200 5.0775
107.4300 5.2296
107.4400 4.1723
107.4500 4.5005
107.4600 6.9757
107.4700 5.1496
107.4800 6.0724
107.4900 4.7520
107.5000 4.8421
107.5100 3.8755
107.5200 2.2004
107.5300 2.7248
107.5400 6.0894
107.5500 2.4409
107.5600 2.9778
107.5700 1.6643
107.5800 2.8908
107.5900 2.5878
107.6000 8.9921
107.6100 5.0413
107.6200 2.1156
107.6300 4.1050
107.6400 5.1780
107.6500 3.1648
107.6600 4.7075
107.6700 2.5693
107.6800 3.1697
107.6900 6.0657
107.7000 3.5169
107.7100 4.7946
107.7200 6.1964
107.7300 4.9526
107.7400 0.3569
107.7500 0.3417
107.7600 7.3831
107.7700 4.6701
107.7800 4.0782
107.7900 2.6873
107.8000 2.7837
107.8100 6.4641
107.8200 3.7454
107.8300 2.3808
107.8400 4.0917
107.8500 6.1290
107.8600 9.3869
107.8700 2.8767
107.8800 3.9958
107.8900 3.0215
107.9000 3.7571
107.9100 2.6204
107.9200 3.9780
107.9300 3.6347
107.9400 5.0230
107.9500 6.1514
107.9600 6.2142
107.9700 4.0598
107.9800 4.9130
107.9900 1.9966
108.0000 4.0375
108.0100 6.4566
108.0200 5.0024
108.0300 2.5201
108.0400 5.2746
108.0500 6.4665
108.0600 4.1979
108.0700 5.2775
108.0800 3.6176
108.0900 3.2563
108.1000 3.8032
108.1100 4.6242
108.1200 7.7925
108.1300 3.6472
108.1400 0.6902
108.1500 5.7306
108.1600 5.2594
108.1700 2.0938
108.1800 3.2826
108.1900 3.7087
108.2000 5.1259
108.2100 6.6386
108.2200 5.6055
108.2300 4.6810
108.2400 0.8144
108.2500 6.4490
108.2600 2.5850
108.2700 1.9608
108.2800 2.1243
108.2900 3.0162
108.3000 1.3183
108.3100 7.0118
108.3200 5.8515
108.3300 5.3322
108.3400 5.0547
108.3500 4.2317
108.3600 2.9669
108.3700 2.4450
108.3800 1.0427
108.3900 4.3170
108.4000 5.9998
108.4100 5.0746
108.4200 2.5033
108.4300 3.8627
108.4400 3.7250
108.4500 5.8305
108.4600 8.2627
108.4700 1.8700
108.4800 6.7921
108.4900 8.3948
108.5000 6.8387
108.5100 4.0252
108.5200 4.3942
108.5300 5.6278
108.5400 2.8770
108.5500 6.3255
108.5600 4.6923
108.5700 3.1055
108.5800 4.2466
108.5900 5.2732
108.6000 6.2889
108.6100 4.5788
108.6200 5.7806
108.6300 3.5115
108.6400 8.5342
108.6500 9.2437
108.6600 1.5268
108.6700 2.1248
108.6800 2.1881
108.6900 2.9500
108.7000 5.0819
108.7100 3.0645
108.7200 2.0572
108.7300 1.8104
108.7400 3.7856
108.7500 4.7603
108.7600 7.1201
108.7700 6.7403
108.7800 1.6977
108.7900 6.5968
108.8000 7.1364
108.8100 7.2527
108.8200 8.1906
108.8300 3.6941
108.8400 3.0157
108.8500 8.7755
108.8600 3.1710
108.8700 4.4257
108.8800 5.0112
108.8900 1.9152
108.9000 3.1260
108.9100 3.3036
108.9200 3.9259
108.9300 3.2714
108.9400 4.2773
108.9500 2.1305
108.9600 7.1294
108.9700 3.3281
108.9800 7.1649
108.9900 5.0002
109.0000 4.9946
109.0100 5.2567
109.0200 2.1562
109.0300 2.5126
109.0400 4.7453
109.0500 3.1577
109.0600 5.6971
109.0700 2.1323
109.0800 3.4913
109.0900 5.6639
109.1000 3.4619
109.1100 4.0907
109.1200 2.2062
109.1300 4.0335
109.1400 2.0489
109.1500 1.7746
109.1600 7.2086
109.1700 5.9214
109.1800 6.7240
109.1900 1.9141
109.2000 5.6597
109.2100 3.2289
109.2200 5.2741
109.2300 5.1404
109.2400 4.9875
109.2500 4.5807
109.2600 5.3709
109.2700 0.6666
109.2800 2.6480
109.2900 8.5136
109.3000 5.1367
109.3100 4.8170
109.3200 2.0674
109.3300 5.2728
109.3400 3.1866
109.3500 7.4850
109.3600 7.1384
109.3700 4.2661
109.3800 4.5635
109.3900 2.6060
109.4000 4.1317
109.4100 2.3921
109.4200 1.6953
109.4300 2.3186
109.4400 5.1421
109.4500 7.0780
109.4600 5.3911
109.4700 6.0435
109.4800 5.4560
109.4900 2.5237
109.5000 5.5947
109.5100 1.3795
109.5200 2.0628
109.5300 0.8513
109.5400 6.9593
109.5500 4.1563
109.5600 4.4079
109.5700 5.0179
109.5800 6.7929
109.5900 3.6654
109.6000 1.0614
109.6100 2.7947
109.6200 5.7306
109.6300 4.7242
109.6400 3.3672
109.6500 7.1191
109.6600 4.0818
109.6700 2.1891
109.6800 5.5170
109.6900 6.9353
109.7000 1.9072
109.7100 4.4441
109.7200 3.9189
109.7300 3.7463
109.7400 6.5263
109.7500 6.7758
109.7600 5.8903
109.7700 1.9823
109.7800 3.3434
109.7900 3.5461
109.8000 1.8800
109.8100 2.6716
109.8200 2.1316
109.8300 1.3932
109.8400 3.6202
109.8500 6.8628
109.8600 4.4180
109.8700 4.0436
109.8800 4.3472
109.8900 9.5773
109.9000 2.3489
109.9100 3.5810
109.9200 5.6589
109.9300 3.9205
109.9400 2.8972
109.9500 4.2508
109.9600 3.4484
109.9700 7.3871
109.9800 4.1117
109.9900 3.9433
110.0000 3.6746
110.0100 5.4160
110.0200 9.5921
110.0300 4.0978
110.0400 4.4351
110.0500 2.9594
110.0600 7.5439
110.0700 7.3039
110.0800 3.1558
110.0900 7.7142
110.1000 3.2230
110.1100 6.6456
110.1200 3.2028
110.1300 5.9003
110.1400 3.8765
110.1500 4.5431
110.1600 4.1992
110.1700 1.3297
110.1800 3.9495
110.1900 4.8669
110.2000 2.5808
110.2100 3.8677
110.2200 2.4108
110.2300 1.9399
110.2400 5.7362
110.2500 2.9025
110.2600 2.1934
110.2700 5.9171
110.2800 4.6553
110.2900 5.3127
110.3000 7.0893
110.3100 2.1176
110.3200 0.7557
110.3300 1.4033
110.3400 4.1471
110.3500 4.2052
110.3600 7.5350
110.3700 4.2534
110.3800 1.9743
110.3900 4.1890
110.4000 3.2517
110.4100 10.9873
110.4200 12.7104
110.4300 4.4086
110.4400 10.2022
110.4500 4.2456
110.4600 5.4204
110.4700 9.6015
110.4800 5.4576
110.4900 7.3663
110.5000 1.3668
110.5100 1.1149
110.5200 4.9800
110.5300 4.7684
110.5400 2.1948
110.5500 4.4604
110.5600 7.7435
110.5700 6.9889
110.5800 3.0103
110.5900 2.1876
110.6000 4.2435
110.6100 4.9756
110.6200 1.3365
110.6300 4.2735
110.6400 5.5962
110.6500 7.3157
110.6600 3.1419
110.6700 0.9874
110.6800 4.2364
110.6900 1.3263
110.7000 4.1119
110.7100 3.1993
110.7200 4.3817
110.7300 2.9092
110.7400 3.2910
110.7500 5.6755
110.7600 4.7395
110.7700 3.5498
110.7800 7.0435
110.7900 6.7569
110.8000 8.5068
110.8100 8.8719
110.8200 6.2083
110.8300 2.7143
110.8400 5.3460
110.8500 1.4589
110.8600 3.5860
110.8700 4.1761
110.8800 5.4182
110.8900 5.3544
110.9000 4.1561
110.9100 10.9925
110.9200 6.7460
110.9300 1.3651
110.9400 3.8978
110.9500 7.3322
110.9600 10.0328
110.9700 2.6359
110.9800 3.0276
110.9900 5.1901
111.0000 6.0061
111.0100 4.0314
111.0200 4.9115
111.0300 4.2915
111.0400 8.9180
111.0500 7.4605
111.0600 8.3195
111.0700 2.8918
111.0800 5.4212
111.0900 4.4048
111.1000 6.9951
111.1100 1.4269
111.1200 7.9681
111.1300 2.4603
111.1400 1.7716
111.1500 3.1415
111.1600 5.0392
111.1700 3.4950
111.1800 1.6004
111.1900 4.6662
111.2000 0.4529
111.2100 2.8133
111.2200 3.1644
111.2300 4.0645
111.2400 1.1386
111.2500 4.1240
111.2600 4.4715
111.2700 3.9697
111.2800 4.7246
111.2900 4.1042
111.3000 4.7805
111.3100 4.2399
111.3200 5.5381
111.3300 7.5839
111.3400 1.8287
111.3500 2.7965
111.3600 5.0425
111.3700 8.7312
111.3800 3.3676
111.3900 5.6178
111.4000 3.1210
111.4100 8.2816
111.4200 4.2167
111.4300 5.6407
111.4400 2.0995
111.4500 8.0421
111.4600 5.0489
111.4700 2.7701
111.4800 7.1718
111.4900 2.8138
111.5000 5.7740
111.5100 2.2273
111.5200 1.9085
111.5300 1.8467
111.5400 2.4607
111.5500 5.3698
111.5600 1.3517
111.5700 3.3460
111.5800 4.0250
111.5900 2.5167
111.6000 7.3274
111.6100 3.7198
111.6200 1.5548
111.6300 5.1117
111.6400 5.7079
111.6500 6.0398
111.6600 2.2744
111.6700 3.0748
111.6800 3.5634
111.6900 6.4677
111.7000 2.0065
111.7100 2.5444
111.7200 2.6348
111.7300 3.6468
111.7400 7.3437
111.7500 2.8816
111.7600 4.0386
111.7700 3.6628
111.7800 6.0506
111.7900 2.9084
111.8000 6.9023
111.8100 2.4444
111.8200 8.1063
111.8300 6.3304
111.8400 4.0512
111.8500 6.3256
111.8600 2.5299
111.8700 0.1332
111.8800 5.9439
111.8900 2.5503
111.9000 7.1285
111.9100 5.8677
111.9200 4.5758
111.9300 5.8828
111.9400 3.4952
111.9500 6.9147
111.9600 5.7194
111.9700 5.4722
111.9800 7.3902
111.9900 5.1534
112.0000 4.9703
112.0100 0.7878
112.0200 0.7286
112.0300 1.7274
112.0400 5.5898
112.0500 5.1468
112.0600 4.0728
112.0700 6.1293
112.0800 7.1255
112.0900 3.3005
112.1000 5.2020
112.1100 8.2428
112.1200 0.0000
112.1300 2.2802
112.1400 6.8008
112.1500 4.5463
112.1600 4.5495
112.1700 4.8187
112.1800 12.2126
112.1900 6.9186
112.2000 6.1507
112.2100 3.1829
112.2200 7.1084
112.2300 3.4782
112.2400 5.2718
112.2500 7.7921
112.2600 9.7087
112.2700 4.4710
112.2800 3.9981
112.2900 5.6051
112.3000 4.2336
112.3100 8.3652
112.3200 5.7223
112.3300 6.5064
112.3400 5.6377
112.3500 5.6812
112.3600 2.1341
112.3700 4.7590
112.3800 7.5499
112.3900 5.6393
112.4000 6.0967
112.4100 6.1756
112.4200 4.1677
112.4300 3.9581
112.4400 1.8557
112.4500 2.0357
112.4600 5.6236
112.4700 8.8966
112.4800 7.9564
112.4900 1.9497
112.5000 3.8978
112.5100 1.2887
112.5200 3.9939
112.5300 1.1851
112.5400 3.8133
112.5500 6.7751
112.5600 3.7193
112.5700 8.9127
112.5800 2.9175
112.5900 1.4321
112.6000 4.0377
112.6100 3.1134
112.6200 2.3548
112.6300 5.0262
112.6400 5.0263
112.6500 2.4091
112.6600 2.4628
112.6700 6.4163
112.6800 3.9029
112.6900 8.9721
112.7000 4.3374
112.7100 3.9905
112.7200 6.1035
112.7300 4.5859
112.7400 4.0153
112.7500 2.4370
112.7600 5.6464
112.7700 3.9707
112.7800 1.6721
112.7900 2.5140
112.8000 2.7371
112.8100 8.8672
112.8200 0.6799
112.8300 10.1551
112.8400 5.2131
112.8500 6.2941
112.8600 4.7086
112.8700 2.4424
112.8800 6.7878
112.8900 8.1692
112.9000 5.5372
112.9100 9.3329
112.9200 6.2950
112.9300 3.1105
112.9400 3.3286
112.9500 3.9064
112.9600 5.2221
112.9700 6.0148
112.9800 2.1310
112.9900 3.1748
113.0000 3.8319
113.0100 3.1663
113.0200 3.7119
113.0300 2.3861
113.0400 5.7116
113.0500 3.5045
113.0600 5.9191
113.0700 2.4998
113.0800 1.8067
113.0900 2.1514
113.1000 2.6726
113.1100 3.6900
113.1200 6.6480
113.1300 3.1628
113.1400 6.0767
113.1500 2.1992
113.1600 1.9937
113.1700 3.5660
113.1800 6.6299
113.1900 6.5092
113.2000 4.1560
113.2100 2.4995
113.2200 4.1464
113.2300 5.2238
113.2400 4.8288
113.2500 4.0652
113.2600 5.2613
113.2700 4.3115
113.2800 5.0295
113.2900 3.6047
113.3000 4.3803
113.3100 3.4727
113.3200 4.6704
113.3300 5.1283
113.3400 4.0552
113.3500 5.1335
113.3600 4.4172
113.3700 4.5228
113.3800 6.9151
113.3900 4.4797
113.4000 5.3945
113.4100 4.3155
113.4200 2.0931
113.4300 5.8748
113.4400 6.7371
113.4500 3.5091
113.4600 3.3517
113.4700 8.3876
113.4800 4.0808
113.4900 3.3591
113.5000 5.6655
113.5100 9.8781
113.5200 7.6543
113.5300 3.7851
113.5400 3.9400
113.5500 7.5621
113.5600 4.5758
113.5700 4.0579
113.5800 7.5599
113.5900 6.6421
113.6000 2.7273
113.6100 4.4703
113.6200 2.4553
113.6300 7.0473
113.6400 6.7348
113.6500 4.1169
113.6600 6.4518
113.6700 1.6719
113.6800 8.0021
113.6900 1.3826
113.7000 4.0349
113.7100 2.8274
113.7200 3.8153
113.7300 3.3568
113.7400 3.3005
113.7500 5.4376
113.7600 1.5758
113.7700 3.9655
113.7800 3.9441
113.7900 3.3042
113.8000 4.1952
113.8100 4.1955
113.8200 6.8635
113.8300 7.7170
113.8400 5.1149
113.8500 4.8140
113.8600 6.2942
113.8700 2.6133
113.8800 7.7770
113.8900 5.5806
113.9000 5.1663
113.9100 6.4644
113.9200 3.0138
113.9300 9.5478
113.9400 6.2252
113.9500 1.5521
113.9600 2.6943
113.9700 4.1826
113.9800 2.2362
113.9900 3.1359
114.0000 4.0744
114.0100 5.0069
114.0200 2.0222
114.0300 2.0976
114.0400 4.9037
114.0500 4.8244
114.0600 4.0631
114.0700 3.8526
114.0800 3.6878
114.0900 3.0273
114.1000 5.0127
114.1100 7.1633
114.1200 6.2206
114.1300 4.1948
114.1400 8.6483
114.1500 3.9844
114.1600 5.8460
114.1700 5.0394
114.1800 7.1608
114.1900 7.7311
114.2000 3.7862
114.2100 8.2246
114.2200 3.1434
114.2300 6.4695
114.2400 8.1664
114.2500 4.3010
114.2600 5.7086
114.2700 5.2107
114.2800 5.1490
114.2900 5.6655
114.3000 1.8513
114.3100 3.0191
114.3200 4.1165
114.3300 2.0525
114.3400 1.4268
114.3500 3.3243
114.3600 1.7655
114.3700 2.1328
114.3800 3.6963
114.3900 2.3642
114.4000 3.8649
114.4100 5.1194
114.4200 6.4489
114.4300 8.9115
114.4400 3.3509
114.4500 3.7882
114.4600 4.4070
114.4700 4.8988
114.4800 5.0272
114.4900 7.4606
114.5000 7.1184
114.5100 4.3706
114.5200 3.2677
114.5300 0.7947
114.5400 1.9080
114.5500 3.9629
114.5600 6.0112
114.5700 6.5652
114.5800 7.2058
114.5900 5.2396
114.6000 0.0000
114.6100 2.9588
114.6200 3.9086
114.6300 5.2493
114.6400 2.3217
114.6500 2.7601
114.6600 2.3684
114.6700 3.2712
114.6800 4.2995
114.6900 1.5401
114.7000 5.3709
114.7100 1.7235
114.7200 6.4378
114.7300 7.5294
114.7400 3.5300
114.7500 7.2763
114.7600 6.9944
114.7700 5.7121
114.7800 5.8453
114.7900 5.5291
114.8000 6.8274
114.8100 13.1811
114.8200 6.0934
114.8300 4.9287
114.8400 6.1879
114.8500 2.1329
114.8600 4.4520
114.8700 3.8591
114.8800 4.1158
114.8900 4.2122
114.9000 6.1285
114.9100 4.8292
114.9200 6.2851
114.9300 1.8271
114.9400 7.0311
114.9500 4.8141
114.9600 8.5054
114.9700 5.7037
114.9800 4.3416
114.9900 5.4233
115.0000 3.5616
115.0100 3.9962
115.0200 3.1980
115.0300 4.1971
115.0400 8.9754
115.0500 5.4404
115.0600 2.9609
115.0700 1.2753
115.0800 5.0945
115.0900 5.7975
115.1000 11.3006
115.1100 6.3201
115.1200 7.4099
115.1300 5.8870
115.1400 7.6807
115.1500 5.0380
115.1600 3.1650
115.1700 3.5695
115.1800 7.7297
115.1900 9.1293
115.2000 8.5466
115.2100 5.7000
115.2200 6.0965
115.2300 4.7187
115.2400 7.1937
115.2500 8.8965
115.2600 7.4021
115.2700 2.7618
115.2800 5.2073
115.2900 7.3838
115.3000 7.5625
115.3100 3.1928
115.3200 10.1712
115.3300 5.2051
115.3400 8.2247
115.3500 8.7746
115.3600 4.8148
115.3700 5.1918
115.3800 4.3896
115.3900 5.9433
115.4000 1.8731
115.4100 3.6959
115.4200 3.9712
115.4300 6.7353
115.4400 4.6238
115.4500 6.0186
115.4600 3.0623
115.4700 4.8307
115.4800 7.3302
115.4900 6.6555
115.5000 14.3744
115.5100 2.7754
115.5200 3.8157
115.5300 6.1713
115.5400 6.3165
115.5500 6.3736
115.5600 5.8736
115.5700 8.1307
115.5800 7.8721
115.5900 7.3244
115.6000 8.7566
115.6100 9.1392
115.6200 8.9652
115.6300 6.1532
115.6400 5.6794
115.6500 6.2712
115.6600 7.2958
115.6700 5.1075
115.6800 10.2221
115.6900 9.5387
115.7000 4.4367
115.7100 10.9373
115.7200 14.5770
115.7300 4.5422
115.7400 8.2560
115.7500 8.0001
115.7600 12.6379
115.7700 11.2872
115.7800 9.0146
115.7900 15.9903
115.8000 3.7364
115.8100 7.2318
115.8200 3.5167
115.8300 9.0935
115.8400 10.3421
115.8500 8.3479
115.8600 7.6685
115.8700 9.9992
115.8800 8.2255
115.8900 6.7937
115.9000 9.2376
115.9100 10.4807
115.9200 6.0448
115.9300 8.5833
115.9400 10.8013
115.9500 9.7134
115.9600 5.3520
115.9700 9.3200
115.9800 9.8533
115.9900 10.6511
116.0000 9.3446
116.0100 9.6316
116.0200 12.2495
116.0300 4.2645
116.0400 12.9888
116.0500 5.6598
116.0600 9.7938
116.0700 6.8427
116.0800 13.1143
116.0900 11.0686
116.1000 5.9130
116.1100 9.4986
116.1200 4.4073
116.1300 6.7650
116.1400 8.3501
116.1500 10.1804
116.1600 13.9415
116.1700 6.8148
116.1800 4.9151
116.1900 4.6301
116.2000 6.3762
116.2100 5.2694
116.2200 9.1973
116.2300 11.9007
116.2400 6.5343
116.2500 7.9314
116.2600 7.0707
116.2700 7.3434
116.2800 10.0056
116.2900 10.1213
116.3000 2.3840
116.3100 9.2439
116.3200 5.4685
116.3300 8.1779
116.3400 6.1438
116.3500 3.3849
116.3600 5.6726
116.3700 11.1047
116.3800 3.3446
116.3900 5.6381
116.4000 4.2369
116.4100 5.5685
116.4200 7.4402
116.4300 7.4626
116.4400 5.0570
116.4500 7.0350
116.4600 8.5298
116.4700 7.1886
116.4800 6.1973
116.4900 7.0461
116.5000 8.6579
116.5100 9.1815
116.5200 5.2263
116.5300 8.6136
116.5400 6.3587
116.5500 4.6698
116.5600 9.5036
116.5700 4.3705
116.5800 9.1910
116.5900 12.1245
116.6000 8.7788
116.6100 9.5124
116.6200 6.5306
116.6300 2.9700
116.6400 3.1744
116.6500 9.2542
116.6600 5.1468
116.6700 6.0665
116.6800 5.3518
116.6900 6.3719
116.7000 8.1702
116.7100 4.6346
116.7200 3.4588
116.7300 7.3250
116.7400 6.5980
116.7500 7.3949
116.7600 5.9573
116.7700 1.7014
116.7800 8.3502
116.7900 6.4317
116.8000 6.0337
116.8100 6.7607
116.8200 8.0749
116.8300 6.2423
116.8400 4.8147
116.8500 5.0621
116.8600 3.4190
116.8700 6.3576
116.8800 7.4581
116.8900 8.6869
116.9000 9.7472
116.9100 4.0687
116.9200 6.6211
116.9300 8.6215
116.9400 10.2071
116.9500 6.7525
116.9600 8.4981
116.9700 6.3034
116.9800 3.8408
116.9900 3.6191
117.0000 4.1503
117.0100 4.7693
117.0200 4.6560
117.0300 4.4856
117.0400 5.3828
117.0500 4.5283
117.0600 3.1400
117.0700 2.0814
117.0800 2.1685
117.0900 7.4225
117.1000 5.5399
117.1100 5.7830
117.1200 5.3511
117.1300 3.9992
117.1400 3.6652
117.1500 10.0184
117.1600 5.1629
117.1700 3.0875
117.1800 3.2043
117.1900 3.6191
117.2000 5.5973
117.2100 2.1506
117.2200 6.8103
117.2300 6.4358
117.2400 6.7660
117.2500 6.4584
117.2600 2.0398
117.2700 7.0238
117.2800 2.2031
117.2900 5.9767
117.3000 2.8190
117.3100 0.3103
117.3200 2.7193
117.3300 5.4766
117.3400 5.5901
117.3500 4.9154
117.3600 0.9516
117.3700 4.6709
117.3800 4.2963
117.3900 3.2074
117.4000 3.4688
117.4100 7.2111
117.4200 3.1036
117.4300 7.5895
117.4400 5.1910
117.4500 10.4931
117.4600 5.5128
117.4700 2.3169
117.4800 4.0683
117.4900 2.2923
117.5000 2.0131
117.5100 2.8292
117.5200 5.4263
117.5300 5.5214
117.5400 2.6242
117.5500 5.3463
117.5600 3.9840
117.5700 4.2711
117.5800 5.5941
117.5900 4.2387
117.6000 5.3369
117.6100 5.9210
117.6200 2.9246
117.6300 5.4384
117.6400 2.0946
117.6500 3.0137
117.6600 5.2027
117.6700 6.1260
117.6800 3.4629
117.6900 10.6588
117.7000 1.5422
117.7100 3.8194
117.7200 5.3157
117.7300 3.2612
117.7400 3.1958
117.7500 2.2728
117.7600 3.8583
117.7700 3.3600
117.7800 3.0768
117.7900 5.1151
117.8000 6.0538
117.8100 2.2283
117.8200 5.1071
117.8300 8.0263
117.8400 13.2719
117.8500 7.6285
117.8600 5.7304
117.8700 2.9060
117.8800 6.1942
117.8900 6.1609
117.9000 4.4102
117.9100 4.2869
117.9200 3.8975
117.9300 1.1717
117.9400 6.1884
117.9500 4.8583
117.9600 6.8386
117.9700 3.1588
117.9800 4.8287
117.9900 6.7051
118.0000 9.0001
118.0100 4.2108
118.0200 3.1917
118.0300 4.0822
118.0400 5.0357
118.0500 3.6110
118.0600 6.1123
118.0700 3.8740
118.0800 3.9024
118.0900 3.8955
118.1000 4.2666
118.1100 4.5793
118.1200 8.9069
118.1300 2.4065
118.1400 1.1997
118.1500 2.8598
118.1600 3.0867
118.1700 1.1473
118.1800 5.6420
118.1900 3.5506
118.2000 6.3056
118.2100 0.8364
118.2200 5.6915
118.2300 4.3796
118.2400 6.1451
118.2500 5.7408
118.2600 6.2531
118.2700 1.6997
118.2800 2.4161
118.2900 5.0948
118.3000 4.1078
118.3100 1.7827
118.3200 7.6106
118.3300 8.5981
118.3400 6.0996
118.3500 2.3304
118.3600 6.9920
118.3700 5.8217
118.3800 2.5524
118.3900 2.2214
118.4000 2.0272
118.4100 0.6963
118.4200 6.6459
118.4300 4.5220
118.4400 8.1762
118.4500 10.0246
118.4600 8.2741
118.4700 4.7393
118.4800 4.8779
118.4900 3.9088
118.5000 6.0160
118.5100 3.8081
118.5200 5.4759
118.5300 3.6601
118.5400 5.8057
118.5500 6.1020
118.5600 5.6122
118.5700 1.9616
118.5800 3.7671
118.5900 5.8926
118.6000 2.7474
118.6100 2.5168
118.6200 3.6675
118.6300 2.1043
118.6400 3.9342
118.6500 4.9813
118.6600 4.1310
118.6700 4.8727
118.6800 1.2328
118.6900 1.6850
118.7000 4.7976
118.7100 5.0702
118.7200 1.6364
118.7300 6.6382
118.7400 5.4083
118.7500 3.1022
118.7600 1.9641
118.7700 5.1446
118.7800 5.0445
118.7900 2.8482
118.8000 2.5281
118.8100 5.3307
118.8200 3.6318
118.8300 3.9696
118.8400 2.6459
118.8500 3.6606
118.8600 5.2685
118.8700 2.2074
118.8800 6.3623
118.8900 6.6436
118.9000 3.3390
118.9100 4.5742
118.9200 5.6587
118.9300 3.4152
118.9400 5.5185
118.9500 4.0952
118.9600 5.0123
118.9700 8.0440
118.9800 4.1343
118.9900 3.3066
119.0000 3.0001
119.0100 6.0556
119.0200 4.8267
119.0300 1.4059
119.0400 3.6545
119.0500 3.5241
119.0600 4.8280
119.0700 3.8861
119.0800 3.1581
119.0900 4.3170
119.1000 3.8631
119.1100 3.3357
119.1200 3.1647
119.1300 3.7686
119.1400 2.6390
119.1500 3.1555
119.1600 2.3200
119.1700 2.5043
119.1800 7.1501
119.1900 2.9748
119.2000 1.9884
119.2100 7.2532
119.2200 3.4869
119.2300 3.3675
119.2400 5.1073
119.2500 2.6976
119.2600 1.7502
119.2700 2.9013
119.2800 5.8130
119.2900 6.1542
119.3000 7.3162
119.3100 4.8848
119.3200 4.2841
119.3300 3.8506
119.3400 1.6252
119.3500 1.0785
119.3600 4.7400
119.3700 3.8614
119.3800 2.4732
119.3900 5.8734
119.4000 2.3669
119.4100 4.3124
119.4200 2.6784
119.4300 4.9323
119.4400 3.9420
119.4500 4.9866
119.4600 4.7956
119.4700 4.9577
119.4800 1.9791
119.4900 4.0952
119.5000 8.0293
119.5100 7.1620
119.5200 4.0328
119.5300 6.0846
119.5400 8.5625
119.5500 6.2450
119.5600 2.2122
119.5700 4.0906
119.5800 4.1713
119.5900 3.2122
119.6000 8.7031
119.6100 2.3442
119.6200 6.2797
119.6300 4.4283
119.6400 6.4907
119.6500 5.8896
119.6600 4.3188
119.6700 3.7200
119.6800 7.1817
119.6900 3.1161
119.7000 3.4479
119.7100 3.9917
119.7200 2.1289
119.7300 2.8209
119.7400 6.5723
119.7500 4.8674
119.7600 4.0564
119.7700 2.2444
119.7800 5.7109
119.7900 3.1525
119.8000 4.0052
119.8100 3.3698
119.8200 4.3464
119.8300 4.3789
119.8400 3.5229
119.8500 5.7274
119.8600 8.3522
119.8700 5.0151
119.8800 5.2639
119.8900 2.5956
119.9000 2.4606
119.9100 2.0253
119.9200 4.0460
119.9300 6.0545
119.9400 1.9304
119.9500 0.0000
119.9600 5.4667
119.9700 3.9176
119.9800 7.7297
119.9900 2.8005
