#Collected Data-105
#Intensity_unit=counts
#Attenuator_coefficient=1.000000
40.0000 25.2957
40.0500 37.9833
40.1000 35.5871
40.1500 37.3764
40.2000 24.3782
40.2500 41.7844
40.3000 40.7495
40.3500 53.8708
40.4000 42.2324
40.4500 37.7315
40.5000 35.7025
40.5500 39.7795
40.6000 48.5985
40.6500 34.9289
40.7000 37.3601
40.7500 37.0629
40.8000 36.7950
40.8500 26.8824
40.9000 36.4758
40.9500 49.8512
41.0000 40.1224
41.0500 51.2621
41.1000 30.0760
41.1500 48.2889
41.2000 41.0521
41.2500 44.8834
41.3000 32.7330
41.3500 48.1920
41.4000 55.3922
41.4500 39.9454
41.5000 40.0106
41.5500 42.8857
41.6000 41.4091
41.6500 32.8836
41.7000 37.1235
41.7500 47.0807
41.8000 30.3644
41.8500 28.2611
41.9000 34.0152
41.9500 49.9192
42.0000 42.9154
42.0500 48.6284
42.1000 37.0607
42.1500 30.7486
42.2000 50.2337
42.2500 31.2721
42.3000 31.0027
42.3500 26.9322
42.4000 39.9449
42.4500 48.2925
42.5000 38.8720
42.5500 40.7742
42.6000 46.6312
42.6500 30.5005
42.7000 43.0374
42.7500 31.3911
42.8000 31.2382
42.8500 37.2316
42.9000 42.0958
42.9500 41.2670
43.0000 33.7665
43.0500 38.1774
43.1000 40.3369
43.1500 42.4581
43.2000 42.5018
43.2500 34.0030
43.3000 37.4905
43.3500 49.7251
43.4000 36.1402
43.4500 40.8593
43.5000 32.9778
43.5500 56.2121
43.6000 31.8406
43.6500 50.2046
43.7000 41.1164
43.7500 40.0491
43.8000 41.6839
43.8500 33.7421
43.9000 45.0002
43.9500 58.2510
44.0000 71.0404
44.0500 66.1630
44.1000 85.9424
44.1500 96.8245
44.2000 151.5183
44.2500 394.8130
44.3000 1254.8798
44.3500 2097.4231
44.4000 2351.3435
44.4500 1429.9216
44.5000 487.3807
44.5500 205.6109
44.6000 97.4890
44.6500 65.1813
44.7000 69.7432
44.7500 52.6620
44.8000 33.0692
44.8500 49.7394
44.9000 41.9836
44.9500 50.8668
45.0000 41.2694
45.0500 39.3320
45.1000 53.9819
45.1500 26.8388
45.2000 44.8243
45.2500 33.4605
45.3000 34.6026
45.3500 37.9299
45.4000 44.1911
45.4500 32.7102
45.5000 36.4211
45.5500 29.4217
45.6000 33.5469
45.6500 30.8203
45.7000 42.1216
45.7500 39.5030
45.8000 51.1851
45.8500 34.7235
45.9000 30.5375
45.9500 48.3024
46.0000 31.7939
46.0500 28.0065
46.1000 29.2908
46.1500 30.6729
46.2000 37.1713
46.2500 39.4329
46.3000 37.3077
46.3500 45.4028
46.4000 32.7209
46.4500 35.7602
46.5000 35.6727
46.5500 48.0373
46.6000 30.9848
46.6500 36.9850
46.7000 25.6139
46.7500 21.4292
46.8000 37.9971
46.8500 35.2434
46.9000 36.5146
46.9500 28.2420
47.0000 21.9178
47.0500 38.3327
47.1000 34.9492
47.1500 39.2454
47.2000 41.1710
47.2500 32.5525
47.3000 39.7725
47.3500 29.5121
47.4000 33.0508
47.4500 32.7842
47.5000 33.6075
47.5500 38.0381
47.6000 27.0241
47.6500 37.6986
47.7000 32.7871
47.7500 23.3780
47.8000 43.3699
47.8500 35.4363
47.9000 39.6134
47.9500 38.1257
48.0000 27.8948
48.0500 33.4101
48.1000 33.8571
48.1500 36.6781
48.2000 31.5103
48.2500 36.1506
48.3000 39.0340
48.3500 29.2118
48.4000 29.8250
48.4500 39.9216
48.5000 31.6189
48.5500 32.6160
48.6000 36.6645
48.6500 38.6251
48.7000 38.8404
48.7500 28.7023
48.8000 24.4141
48.8500 27.0908
48.9000 39.0582
48.9500 41.0709
49.0000 42.2778
49.0500 37.3791
49.1000 29.8777
49.1500 27.5661
49.2000 41.9230
49.2500 39.4275
49.3000 32.8727
49.3500 30.6095
49.4000 31.4959
49.4500 24.2811
49.5000 38.2006
49.5500 37.3390
49.6000 37.5117
49.6500 27.2580
49.7000 38.1170
49.7500 40.0301
49.8000 34.6009
49.8500 30.7744
49.9000 28.1844
49.9500 41.0739
50.0000 31.0408
50.0500 30.3584
50.1000 30.1229
50.1500 30.5995
50.2000 19.3862
50.2500 34.9985
50.3000 35.8106
50.3500 37.7353
50.4000 34.1070
50.4500 42.9134
50.5000 23.3577
50.5500 30.3017
50.6000 27.5116
50.6500 33.3188
50.7000 33.1530
50.7500 31.9029
50.8000 33.4812
50.8500 31.2137
50.9000 43.4580
50.9500 36.2812
51.0000 33.2304
51.0500 26.4380
51.1000 29.2601
51.1500 33.2890
51.2000 37.0046
51.2500 30.5132
51.3000 27.7430
51.3500 35.6787
51.4000 35.4384
51.4500 31.7622
51.5000 40.1175
51.5500 18.4124
51.6000 37.0564
51.6500 30.2690
51.7000 30.8702
51.7500 40.4713
51.8000 38.7465
51.8500 47.6878
51.9000 46.1499
51.9500 36.6497
52.0000 25.5852
52.0500 25.7452
52.1000 40.5480
52.1500 39.4982
52.2000 34.8044
52.2500 32.2418
52.3000 33.6291
52.3500 23.3455
52.4000 37.2457
52.4500 30.0288
52.5000 36.5880
52.5500 38.2141
52.6000 33.6023
52.6500 30.1830
52.7000 38.8026
52.7500 42.8912
52.8000 35.0249
52.8500 28.0011
52.9000 32.7440
52.9500 27.9863
53.0000 35.5536
53.0500 31.2709
53.1000 35.0923
53.1500 38.6243
53.2000 27.5909
53.2500 43.8489
53.3000 30.8846
53.3500 23.6557
53.4000 37.7533
53.4500 35.6583
53.5000 31.5859
53.5500 42.6858
53.6000 40.3908
53.6500 30.2502
53.7000 32.9216
53.7500 30.0937
53.8000 38.7999
53.8500 31.9248
53.9000 34.0064
53.9500 46.6138
54.0000 32.7247
54.0500 31.9035
54.1000 20.6441
54.1500 40.3040
54.2000 29.5540
54.2500 29.8870
54.3000 28.1495
54.3500 28.9472
54.4000 32.5731
54.4500 25.8593
54.5000 36.1781
54.5500 28.0082
54.6000 35.0990
54.6500 26.3864
54.7000 37.2509
54.7500 27.2133
54.8000 32.1582
54.8500 41.1576
54.9000 28.2886
54.9500 28.0051
55.0000 36.6458
55.0500 37.9868
55.1000 31.0377
55.1500 30.3573
55.2000 23.0939
55.2500 29.7657
55.3000 45.0679
55.3500 44.9336
55.4000 29.6534
55.4500 42.0614
55.5000 31.3447
55.5500 32.0962
55.6000 39.6761
55.6500 33.3658
55.7000 31.1718
55.7500 33.4100
55.8000 25.8629
55.8500 26.1670
55.9000 26.0003
55.9500 36.0636
56.0000 39.5969
56.0500 33.9208
56.1000 31.5561
56.1500 33.3144
56.2000 27.4786
56.2500 32.9859
56.3000 35.4079
56.3500 35.9707
56.4000 26.4024
56.4500 29.4037
56.5000 33.8859
56.5500 27.0052
56.6000 28.0881
56.6500 25.6225
56.7000 28.8671
56.7500 24.3186
56.8000 30.6301
56.8500 36.6446
56.9000 28.5768
56.9500 36.6089
57.0000 24.9373
57.0500 32.6692
57.1000 29.7761
57.1500 39.4265
57.2000 39.8010
57.2500 31.5713
57.3000 25.2403
57.3500 33.8911
57.4000 33.0955
57.4500 31.7777
57.5000 32.0968
57.5500 29.8088
57.6000 28.0768
57.6500 20.8006
57.7000 30.5374
57.7500 28.3310
57.8000 31.2802
57.8500 29.2220
57.9000 31.7454
57.9500 37.8673
58.0000 38.4353
58.0500 36.9994
58.1000 28.5420
58.1500 29.5456
58.2000 26.7874
58.2500 28.6004
58.3000 34.1137
58.3500 29.3538
58.4000 30.6732
58.4500 34.4773
58.5000 41.2735
58.5500 37.5150
58.6000 29.5929
58.6500 32.0379
58.7000 30.8602
58.7500 26.6054
58.8000 37.8946
58.8500 41.0238
58.9000 37.8074
58.9500 32.6229
59.0000 28.9530
59.0500 36.5330
59.1000 35.0634
59.1500 22.5247
59.2000 26.4412
59.2500 31.3608
59.3000 32.2877
59.3500 37.2207
59.4000 30.0044
59.4500 32.8724
59.5000 26.5095
59.5500 27.1033
59.6000 29.7646
59.6500 25.9979
59.7000 31.6936
59.7500 30.5299
59.8000 29.8394
59.8500 34.9129
59.9000 35.2179
59.9500 26.6443
60.0000 25.1020
60.0500 31.5063
60.1000 27.3424
60.1500 36.6930
60.2000 28.2459
60.2500 38.2806
60.3000 32.6884
60.3500 31.7640
60.4000 29.2293
60.4500 27.4055
60.5000 27.3633
60.5500 25.2276
60.6000 25.7199
60.6500 31.6502
60.7000 23.0907
60.7500 32.0236
60.8000 32.5693
60.8500 38.4637
60.9000 38.5279
60.9500 26.9084
61.0000 33.7994
61.0500 31.1861
61.1000 30.6650
61.1500 35.8940
61.2000 27.3674
61.2500 31.0319
61.3000 30.0985
61.3500 33.3825
61.4000 28.6355
61.4500 31.9227
61.5000 35.2559
61.5500 27.4513
61.6000 38.8747
61.6500 26.5758
61.7000 45.2813
61.7500 36.4966
61.8000 34.3542
61.8500 29.1312
61.9000 36.4196
61.9500 34.7096
62.0000 33.2204
62.0500 27.4957
62.1000 30.0006
62.1500 33.0913
62.2000 29.8318
62.2500 34.0003
62.3000 26.6878
62.3500 28.6934
62.4000 31.5340
62.4500 31.0214
62.5000 33.8128
62.5500 24.4547
62.6000 34.5626
62.6500 27.8017
62.7000 34.0073
62.7500 40.0256
62.8000 48.3044
62.8500 33.5546
62.9000 35.5846
62.9500 28.8211
63.0000 33.0406
63.0500 34.4250
63.1000 34.2123
63.1500 30.9036
63.2000 24.5412
63.2500 37.8640
63.3000 28.3638
63.3500 31.1109
63.4000 35.2697
63.4500 29.2208
63.5000 38.4274
63.5500 36.4233
63.6000 37.5029
63.6500 23.1356
63.7000 24.9391
63.7500 24.2739
63.8000 26.8803
63.8500 24.7827
63.9000 30.0638
63.9500 26.7157
64.0000 33.0798
64.0500 38.8290
64.1000 29.9635
64.1500 44.1214
64.2000 29.2812
64.2500 35.7478
64.3000 26.8294
64.3500 34.3620
64.4000 39.4308
64.4500 40.8924
64.5000 48.1777
64.5500 70.3631
64.6000 113.6046
64.6500 139.5289
64.7000 161.3304
64.7500 151.3395
64.8000 94.7833
64.8500 69.9994
64.9000 62.4341
64.9500 42.4541
65.0000 34.7454
65.0500 31.6886
65.1000 26.2669
65.1500 31.5482
65.2000 33.5363
65.2500 34.5155
65.3000 40.5033
65.3500 22.2407
65.4000 31.6904
65.4500 30.7366
65.5000 38.2176
65.5500 38.7843
65.6000 30.0692
65.6500 25.3518
65.7000 37.2314
65.7500 25.7177
65.8000 32.0750
65.8500 24.1810
65.9000 26.2084
65.9500 26.6818
66.0000 33.1072
66.0500 42.2723
66.1000 32.2402
66.1500 35.9658
66.2000 34.5775
66.2500 23.3590
66.3000 31.3724
66.3500 24.0164
66.4000 40.2760
66.4500 24.8573
66.5000 27.4878
66.5500 39.1381
66.6000 36.7542
66.6500 31.1656
66.7000 39.3646
66.7500 30.4555
66.8000 34.9501
66.8500 28.7101
66.9000 30.6822
66.9500 32.4496
67.0000 26.2366
67.0500 19.2065
67.1000 21.9825
67.1500 26.9298
67.2000 37.5367
67.2500 27.0316
67.3000 22.0275
67.3500 21.5099
67.4000 22.5971
67.4500 29.0995
67.5000 36.7494
67.5500 18.1536
67.6000 28.9923
67.6500 39.5162
67.7000 37.2883
67.7500 27.6048
67.8000 22.6153
67.8500 23.2134
67.9000 35.4748
67.9500 26.2768
68.0000 36.0828
68.0500 33.5451
68.1000 26.8946
68.1500 34.3648
68.2000 36.0789
68.2500 29.8914
68.3000 27.9709
68.3500 20.2402
68.4000 27.1503
68.4500 39.0144
68.5000 25.9197
68.5500 36.2693
68.6000 31.2591
68.6500 34.2891
68.7000 26.4415
68.7500 27.6710
68.8000 38.3671
68.8500 30.4194
68.9000 45.6141
68.9500 40.3798
69.0000 40.0975
69.0500 28.2996
69.1000 38.5994
69.1500 27.7719
69.2000 23.9816
69.2500 24.4863
69.3000 17.9349
69.3500 45.7117
69.4000 36.4513
69.4500 28.8184
69.5000 30.5021
69.5500 29.7696
69.6000 36.2832
69.6500 28.5881
69.7000 29.2274
69.7500 23.5608
69.8000 38.2071
69.8500 37.9633
69.9000 22.0246
69.9500 19.7338
70.0000 34.7337
70.0500 30.5765
70.1000 15.3211
70.1500 19.4055
70.2000 29.6218
70.2500 31.4909
70.3000 24.0715
70.3500 29.6459
70.4000 29.8181
70.4500 25.0652
70.5000 37.9841
70.5500 16.8672
70.6000 25.9247
70.6500 33.6895
70.7000 28.2570
70.7500 19.2985
70.8000 40.2870
70.8500 33.9529
70.9000 22.6965
70.9500 20.2410
71.0000 20.3784
71.0500 28.9055
71.1000 20.6540
71.1500 24.1220
71.2000 35.8692
71.2500 36.0121
71.3000 29.5414
71.3500 29.6389
71.4000 36.7863
71.4500 24.4934
71.5000 31.7297
71.5500 25.1432
71.6000 31.1051
71.6500 25.0646
71.7000 34.4043
71.7500 25.3844
71.8000 25.2346
71.8500 35.6012
71.9000 33.7342
71.9500 28.6076
72.0000 29.8830
72.0500 25.8899
72.1000 37.7298
72.1500 30.6327
72.2000 32.9949
72.2500 24.1412
72.3000 33.3755
72.3500 30.7448
72.4000 32.1790
72.4500 30.8285
72.5000 31.9980
72.5500 37.0789
72.6000 33.5224
72.6500 34.8037
72.7000 33.2228
72.7500 40.2662
72.8000 37.0237
72.8500 28.4060
72.9000 33.6016
72.9500 31.5439
73.0000 39.1977
73.0500 30.6644
73.1000 33.4607
73.1500 40.2536
73.2000 24.7184
73.2500 38.6831
73.3000 31.1091
73.3500 22.5703
73.4000 35.2140
73.4500 22.7905
73.5000 23.5375
73.5500 26.6968
73.6000 32.4258
73.6500 36.4803
73.7000 31.8972
73.7500 29.6914
73.8000 36.1807
73.8500 32.6270
73.9000 25.2997
73.9500 29.3437
74.0000 39.8823
74.0500 29.3279
74.1000 32.2316
74.1500 25.7102
74.2000 33.2404
74.2500 37.5154
74.3000 27.7176
74.3500 27.0091
74.4000 24.9996
74.4500 35.1844
74.5000 31.2984
74.5500 35.1982
74.6000 35.0033
74.6500 31.3111
74.7000 31.1926
74.7500 28.3350
74.8000 23.9296
74.8500 28.6923
74.9000 29.9745
74.9500 26.4893
75.0000 32.5044
75.0500 25.0707
75.1000 40.7910
75.1500 35.9457
75.2000 35.0740
75.2500 30.3972
75.3000 39.7033
75.3500 34.3014
75.4000 28.1091
75.4500 32.6007
75.5000 28.9081
75.5500 37.2939
75.6000 27.2252
75.6500 42.7373
75.7000 29.9694
75.7500 37.3915
75.8000 21.8295
75.8500 27.7535
75.9000 33.2615
75.9500 33.4144
76.0000 37.4092
76.0500 25.7572
76.1000 26.8500
76.1500 32.9605
76.2000 29.2696
76.2500 24.2078
76.3000 28.4354
76.3500 30.4031
76.4000 27.9366
76.4500 25.5976
76.5000 37.3278
76.5500 23.6003
76.6000 27.0364
76.6500 34.4156
76.7000 25.4785
76.7500 32.9521
76.8000 35.0502
76.8500 28.4245
76.9000 21.3986
76.9500 28.7834
77.0000 26.6533
77.0500 32.4866
77.1000 36.0506
77.1500 30.0265
77.2000 30.7038
77.2500 29.7864
77.3000 30.7637
77.3500 33.1464
77.4000 32.9878
77.4500 34.2283
77.5000 29.8943
77.5500 27.3592
77.6000 29.5717
77.6500 30.0762
77.7000 27.5957
77.7500 30.1792
77.8000 27.5884
77.8500 31.9176
77.9000 36.9996
77.9500 34.5551
78.0000 30.5467
78.0500 23.1547
78.1000 34.7394
78.1500 40.5054
78.2000 33.1428
78.2500 28.9936
78.3000 28.8324
78.3500 29.0020
78.4000 30.9528
78.4500 20.5326
78.5000 31.2367
78.5500 23.8954
78.6000 36.5032
78.6500 33.3669
78.7000 21.9172
78.7500 36.2871
78.8000 31.4165
78.8500 22.0730
78.9000 35.4551
78.9500 25.7958
79.0000 27.5131
79.0500 28.0682
79.1000 31.5029
79.1500 39.8790
79.2000 27.4991
79.2500 33.9280
79.3000 29.5350
79.3500 23.2889
79.4000 18.6752
79.4500 26.0893
79.5000 37.2065
79.5500 41.9095
79.6000 30.2527
79.6500 40.3468
79.7000 22.6687
79.7500 34.5964
79.8000 17.2611
79.8500 27.7021
79.9000 30.8950
79.9500 34.2979
80.0000 28.0594
80.0500 21.9576
80.1000 37.0509
80.1500 38.8428
80.2000 32.4435
80.2500 31.9517
80.3000 27.8259
80.3500 28.3573
80.4000 31.6527
80.4500 28.3673
80.5000 36.7464
80.5500 43.7772
80.6000 31.3962
80.6500 28.7506
80.7000 29.2579
80.7500 22.5721
80.8000 32.5615
80.8500 31.4690
80.9000 29.2708
80.9500 27.6782
81.0000 24.9869
81.0500 27.0499
81.1000 35.3501
81.1500 24.3674
81.2000 37.3007
81.2500 32.0097
81.3000 25.9783
81.3500 37.2593
81.4000 17.0525
81.4500 26.9117
81.5000 36.4772
81.5500 32.7384
81.6000 40.2174
81.6500 35.1423
81.7000 48.6767
81.7500 71.0365
81.8000 57.6699
81.8500 124.0408
81.9000 211.5724
81.9500 274.3241
82.0000 272.4436
82.0500 201.6748
82.1000 128.7999
82.1500 87.1861
82.2000 69.5812
82.2500 50.0199
82.3000 45.6873
82.3500 38.0479
82.4000 37.9385
82.4500 26.8698
82.5000 26.4854
82.5500 33.2866
82.6000 36.1190
82.6500 32.6348
82.7000 42.3803
82.7500 32.9185
82.8000 28.6390
82.8500 27.8473
82.9000 27.1883
82.9500 35.2226
83.0000 30.5293
83.0500 29.5365
83.1000 28.1584
83.1500 39.1423
83.2000 37.0334
83.2500 23.7828
83.3000 28.7334
83.3500 36.3477
83.4000 34.6283
83.4500 25.3683
83.5000 38.0367
83.5500 27.1691
83.6000 38.2445
83.6500 34.3673
83.7000 33.1204
83.7500 32.0348
83.8000 25.6127
83.8500 29.8267
83.9000 29.6936
83.9500 32.6538
84.0000 26.8454
84.0500 27.1351
84.1000 36.2391
84.1500 33.2477
84.2000 22.3906
84.2500 33.4992
84.3000 35.1572
84.3500 35.7614
84.4000 27.7070
84.4500 30.4716
84.5000 27.0307
84.5500 31.1132
84.6000 28.8934
84.6500 31.5523
84.7000 26.1715
84.7500 36.9001
84.8000 25.2257
84.8500 22.6584
84.9000 26.8159
84.9500 27.6791
85.0000 36.2017
85.0500 20.9369
85.1000 29.8284
85.1500 32.6056
85.2000 35.1900
85.2500 32.9854
85.3000 36.3112
85.3500 31.3867
85.4000 35.1880
85.4500 17.4160
85.5000 28.8435
85.5500 27.8013
85.6000 36.2691
85.6500 33.6553
85.7000 35.1658
85.7500 25.9058
85.8000 36.2622
85.8500 36.4176
85.9000 36.0655
85.9500 38.8131
86.0000 36.1462
86.0500 23.3639
86.1000 29.7184
86.1500 34.9250
86.2000 26.2778
86.2500 28.5102
86.3000 31.7226
86.3500 28.2010
86.4000 30.9146
86.4500 27.7381
86.5000 24.6614
86.5500 33.9130
86.6000 35.0733
86.6500 32.9589
86.7000 35.9638
86.7500 24.6098
86.8000 33.6419
86.8500 21.5219
86.9000 33.3274
86.9500 32.9869
87.0000 30.2230
87.0500 28.6583
87.1000 30.9052
87.1500 36.0641
87.2000 31.0265
87.2500 24.1314
87.3000 31.5663
87.3500 34.0196
87.4000 35.2206
87.4500 25.0671
87.5000 38.6107
87.5500 31.8675
87.6000 32.8394
87.6500 27.7574
87.7000 34.2680
87.7500 28.8860
87.8000 28.7749
87.8500 24.1792
87.9000 19.9265
87.9500 30.6824
88.0000 39.5082
88.0500 31.8784
88.1000 30.4029
88.1500 29.7545
88.2000 32.7624
88.2500 31.7384
88.3000 26.2335
88.3500 24.0612
88.4000 24.5312
88.4500 27.8710
88.5000 22.3094
88.5500 26.6266
88.6000 29.3341
88.6500 31.3785
88.7000 34.9008
88.7500 25.9556
88.8000 30.6071
88.8500 30.4442
88.9000 27.0373
88.9500 45.6095
89.0000 29.9661
89.0500 35.5587
89.1000 25.1660
89.1500 34.3827
89.2000 36.1387
89.2500 24.5297
89.3000 25.3659
89.3500 22.0657
89.4000 30.0834
89.4500 34.1929
89.5000 29.9514
89.5500 36.6841
89.6000 23.7142
89.6500 39.1769
89.7000 27.2923
89.7500 37.9169
89.8000 33.8360
89.8500 36.3688
89.9000 40.9608
89.9500 21.7311
90.0000 24.7522
90.0500 32.8580
90.1000 35.9327
90.1500 33.0191
90.2000 26.7044
90.2500 21.5287
90.3000 38.0374
90.3500 29.1018
90.4000 28.8679
90.4500 44.2432
90.5000 30.1378
90.5500 21.2376
90.6000 27.4313
90.6500 29.9583
90.7000 34.2642
90.7500 32.5960
90.8000 33.5168
90.8500 34.4845
90.9000 28.3078
90.9500 27.4997
91.0000 32.8308
91.0500 27.7723
91.1000 29.8054
91.1500 36.8697
91.2000 24.1189
91.2500 28.3184
91.3000 27.4462
91.3500 26.2132
91.4000 37.2214
91.4500 32.0165
91.5000 30.5290
91.5500 19.0869
91.6000 42.3971
91.6500 34.8698
91.7000 35.4920
91.7500 33.3149
91.8000 34.0560
91.8500 36.7564
91.9000 27.0021
91.9500 27.0124
92.0000 29.7854
92.0500 30.4804
92.1000 36.1095
92.1500 29.0584
92.2000 31.5899
92.2500 33.9493
92.3000 34.6499
92.3500 40.7950
92.4000 30.4167
92.4500 26.1425
92.5000 33.2576
92.5500 30.5224
92.6000 27.8599
92.6500 25.4455
92.7000 27.2147
92.7500 23.3517
92.8000 29.0857
92.8500 28.6039
92.9000 32.2089
92.9500 36.3357
93.0000 24.6372
93.0500 25.7423
93.1000 39.5645
93.1500 24.3292
93.2000 28.9285
93.2500 31.9305
93.3000 31.2770
93.3500 28.5891
93.4000 23.3882
93.4500 31.1496
93.5000 40.6952
93.5500 30.9215
93.6000 26.7552
93.6500 28.3397
93.7000 39.4571
93.7500 37.0819
93.8000 31.9632
93.8500 40.4791
93.9000 25.6272
93.9500 26.0155
94.0000 25.5622
94.0500 40.6123
94.1000 32.0774
94.1500 36.1216
94.2000 27.0311
94.2500 31.0834
94.3000 29.9148
94.3500 46.2743
94.4000 30.5481
94.4500 28.9564
94.5000 34.0978
94.5500 36.0410
94.6000 28.5318
94.6500 29.5807
94.7000 36.0644
94.7500 27.2646
94.8000 36.7429
94.8500 23.8122
94.9000 27.2233
94.9500 30.8032
95.0000 25.7377
95.0500 34.2412
95.1000 34.0619
95.1500 25.2879
95.2000 29.7423
95.2500 26.5673
95.3000 31.1127
95.3500 26.5040
95.4000 23.9304
95.4500 28.7203
95.5000 24.7123
95.5500 33.2723
95.6000 29.3525
95.6500 29.7068
95.7000 26.1410
95.7500 28.1509
95.8000 29.8115
95.8500 28.7251
95.9000 35.0652
95.9500 31.7753
96.0000 31.0175
96.0500 31.1967
96.1000 32.2577
96.1500 29.1024
96.2000 32.9207
96.2500 36.2014
96.3000 28.2385
96.3500 27.7974
96.4000 30.9610
96.4500 46.9273
96.5000 31.7865
96.5500 21.5119
96.6000 27.7209
96.6500 22.8959
96.7000 27.9347
96.7500 30.5292
96.8000 26.3380
96.8500 36.8954
96.9000 32.4071
96.9500 29.8767
97.0000 19.8543
97.0500 26.8133
97.1000 30.4040
97.1500 27.0206
97.2000 29.4362
97.2500 32.4515
97.3000 38.7845
97.3500 36.9999
97.4000 32.9192
97.4500 42.5007
97.5000 23.1758
97.5500 26.3850
97.6000 19.5023
97.6500 29.0615
97.7000 34.6025
97.7500 26.0280
97.8000 36.2463
97.8500 35.3435
97.9000 28.9640
97.9500 29.1877
98.0000 24.2194
98.0500 36.6981
98.1000 40.8221
98.1500 39.9159
98.2000 35.8879
98.2500 51.0372
98.3000 36.8575
98.3500 54.5200
98.4000 93.2919
98.4500 118.6316
98.5000 150.8038
98.5500 175.7719
98.6000 129.7056
98.6500 96.1533
98.7000 79.1705
98.7500 58.7037
98.8000 45.6273
98.8500 43.3937
98.9000 39.3144
98.9500 39.9411
99.0000 36.9524
99.0500 44.3207
99.1000 27.9664
99.1500 27.7141
99.2000 25.0977
99.2500 32.3797
99.3000 36.3600
99.3500 29.0658
99.4000 34.2204
99.4500 19.5832
99.5000 29.8014
99.5500 32.7013
99.6000 25.4916
99.6500 34.8062
99.7000 43.2006
99.7500 25.2617
99.8000 34.6489
99.8500 33.9305
99.9000 30.6050
99.9500 25.0017
100.0000 31.1446
100.0500 29.9632
100.1000 28.0817
100.1500 28.0564
100.2000 19.3096
100.2500 32.3704
100.3000 26.5023
100.3500 33.4933
100.4000 34.5906
100.4500 32.5820
100.5000 28.0705
100.5500 31.8167
100.6000 29.1560
100.6500 14.3018
100.7000 33.9702
100.7500 26.9626
100.8000 21.4514
100.8500 29.0597
100.9000 26.7542
100.9500 29.8541
101.0000 27.9514
101.0500 25.7069
101.1000 36.8918
101.1500 32.2777
101.2000 29.1740
101.2500 16.7829
101.3000 20.2419
101.3500 37.8631
101.4000 28.9831
101.4500 32.9964
101.5000 41.2091
101.5500 30.0907
101.6000 39.8353
101.6500 36.9898
101.7000 20.5324
101.7500 28.8752
101.8000 28.6392
101.8500 31.9879
101.9000 26.3306
101.9500 22.5744
102.0000 37.0680
102.0500 42.2780
102.1000 25.6335
102.1500 42.0859
102.2000 26.3613
102.2500 29.0518
102.3000 25.0946
102.3500 31.5018
102.4000 30.7181
102.4500 35.0588
102.5000 24.8804
102.5500 34.4034
102.6000 34.8995
102.6500 38.9309
102.7000 26.6180
102.7500 32.5677
102.8000 29.8626
102.8500 42.2987
102.9000 29.4282
102.9500 34.8077
103.0000 31.0546
103.0500 26.9695
103.1000 26.2147
103.1500 29.7559
103.2000 27.6334
103.2500 32.0010
103.3000 37.1460
103.3500 32.0824
103.4000 35.2308
103.4500 37.5947
103.5000 37.0058
103.5500 25.5865
103.6000 33.6575
103.6500 28.4113
103.7000 28.6715
103.7500 30.3591
103.8000 31.1963
103.8500 30.0484
103.9000 29.3654
103.9500 29.8587
104.0000 41.4604
104.0500 25.9696
104.1000 31.0236
104.1500 32.6464
104.2000 32.9065
104.2500 23.9041
104.3000 35.2910
104.3500 38.8687
104.4000 34.9704
104.4500 28.4123
104.5000 25.8658
104.5500 26.4823
104.6000 22.2484
104.6500 25.5278
104.7000 24.7030
104.7500 32.7469
104.8000 31.9336
104.8500 33.1177
104.9000 28.0957
104.9500 36.1481
105.0000 31.1772
105.0500 30.5363
105.1000 30.1952
105.1500 32.3739
105.2000 37.3158
105.2500 24.6630
105.3000 38.5941
105.3500 25.4769
105.4000 29.3817
105.4500 31.3122
105.5000 33.8008
105.5500 28.3368
105.6000 32.5806
105.6500 39.2811
105.7000 33.1232
105.7500 23.6666
105.8000 25.2488
105.8500 43.6271
105.9000 31.1600
105.9500 27.9705
106.0000 33.6988
106.0500 25.2417
106.1000 29.5538
106.1500 35.0209
106.2000 43.1619
106.2500 30.6459
106.3000 31.1901
106.3500 27.2768
106.4000 35.3614
106.4500 28.8860
106.5000 30.7680
106.5500 44.8399
106.6000 32.6626
106.6500 36.0877
106.7000 21.2861
106.7500 22.0756
106.8000 28.2454
106.8500 30.0092
106.9000 26.6055
106.9500 35.9437
107.0000 26.5565
107.0500 27.1858
107.1000 32.0371
107.1500 30.0831
107.2000 30.0645
107.2500 27.1166
107.3000 21.4952
107.3500 37.6316
107.4000 26.8561
107.4500 33.7110
107.5000 24.8274
107.5500 31.8923
107.6000 35.8591
107.6500 36.2622
107.7000 32.9148
107.7500 27.1012
107.8000 28.5068
107.8500 38.9618
107.9000 29.2809
107.9500 32.8937
108.0000 36.4715
108.0500 36.7463
108.1000 33.8125
108.1500 26.8597
108.2000 34.4153
108.2500 44.5752
108.3000 29.9843
108.3500 43.3030
108.4000 37.2245
108.4500 27.2406
108.5000 23.4595
108.5500 27.7979
108.6000 19.8227
108.6500 31.4268
108.7000 32.4803
108.7500 18.7150
108.8000 31.7088
108.8500 25.6842
108.9000 38.6786
108.9500 25.2915
109.0000 32.8115
109.0500 21.2483
109.1000 20.1263
109.1500 34.2119
109.2000 42.6473
109.2500 31.3962
109.3000 24.3920
109.3500 29.7553
109.4000 29.8807
109.4500 24.9604
109.5000 31.6073
109.5500 31.4854
109.6000 35.7020
109.6500 34.4635
109.7000 30.8174
109.7500 36.0845
109.8000 30.9982
109.8500 22.0391
109.9000 38.8916
109.9500 27.3302
110.0000 32.1985
110.0500 34.2697
110.1000 23.3305
110.1500 25.6413
110.2000 26.7460
110.2500 25.8465
110.3000 24.8872
110.3500 29.1583
110.4000 45.2091
110.4500 36.9894
110.5000 28.8660
110.5500 29.0471
110.6000 24.5019
110.6500 35.1752
110.7000 39.0493
110.7500 36.8325
110.8000 30.8308
110.8500 39.7092
110.9000 32.9704
110.9500 40.4448
111.0000 29.2165
111.0500 31.9189
111.1000 24.7630
111.1500 29.7001
111.2000 33.3059
111.2500 29.6185
111.3000 30.2234
111.3500 37.8840
111.4000 28.1795
111.4500 25.5413
111.5000 31.3572
111.5500 31.6711
111.6000 34.7890
111.6500 37.5663
111.7000 29.3149
111.7500 36.1164
111.8000 29.6008
111.8500 28.9850
111.9000 28.3591
111.9500 34.2395
112.0000 29.9006
112.0500 30.9617
112.1000 26.5541
112.1500 29.7143
112.2000 29.8420
112.2500 32.8130
112.3000 27.0289
112.3500 28.3483
112.4000 30.1767
112.4500 39.0798
112.5000 38.9717
112.5500 27.0230
112.6000 25.8348
112.6500 30.5923
112.7000 30.7218
112.7500 39.4116
112.8000 32.2240
112.8500 42.0790
112.9000 44.0844
112.9500 45.1424
113.0000 38.7907
113.0500 26.9629
113.1000 29.6110
113.1500 31.5398
113.2000 30.3916
113.2500 30.1883
113.3000 28.5395
113.3500 23.5066
113.4000 24.8966
113.4500 39.8350
113.5000 27.8638
113.5500 31.9796
113.6000 28.8931
113.6500 37.1575
113.7000 32.3428
113.7500 39.0310
113.8000 49.6244
113.8500 39.7065
113.9000 25.7659
113.9500 31.2821
114.0000 37.3755
114.0500 30.4625
114.1000 35.8149
114.1500 27.6035
114.2000 27.0921
114.2500 51.9191
114.3000 19.1557
114.3500 31.4695
114.4000 30.2418
114.4500 30.9085
114.5000 40.6532
114.5500 33.4580
114.6000 36.4661
114.6500 22.7020
114.7000 27.8650
114.7500 39.4059
114.8000 29.1443
114.8500 35.7204
114.9000 32.2683
114.9500 45.1612
115.0000 34.3558
115.0500 30.3289
115.1000 33.2387
115.1500 34.0538
115.2000 31.0644
115.2500 35.7003
115.3000 33.6219
115.3500 33.2295
115.4000 55.8248
115.4500 43.6448
115.5000 39.7551
115.5500 37.9362
115.6000 49.3184
115.6500 74.4572
115.7000 60.2706
115.7500 79.2426
115.8000 81.6428
115.8500 101.8771
115.9000 118.8285
115.9500 97.5030
116.0000 100.9721
116.0500 89.4036
116.1000 80.3185
116.1500 72.2310
116.2000 54.7685
116.2500 52.2805
116.3000 48.9079
116.3500 41.2913
116.4000 35.3882
116.4500 30.2564
116.5000 49.7367
116.5500 37.0516
116.6000 30.1530
116.6500 32.3900
116.7000 26.3572
116.7500 30.9438
116.8000 38.6932
116.8500 36.3118
116.9000 33.3629
116.9500 29.4616
117.0000 19.9113
117.0500 23.6750
117.1000 29.9324
117.1500 38.3409
117.2000 32.8358
117.2500 36.7050
117.3000 21.8356
117.3500 34.2093
117.4000 33.3538
117.4500 40.7559
117.5000 25.1388
117.5500 24.5866
117.6000 24.0921
117.6500 33.5709
117.7000 34.6125
117.7500 32.0916
117.8000 24.7376
117.8500 33.2729
117.9000 30.1758
117.9500 38.7298
118.0000 31.0568
118.0500 31.1785
118.1000 35.6008
118.1500 31.0237
118.2000 32.1569
118.2500 27.4893
118.3000 24.2805
118.3500 30.2543
118.4000 32.8023
118.4500 37.1024
118.5000 21.2243
118.5500 25.4839
118.6000 32.3481
118.6500 33.5533
118.7000 24.5056
118.7500 31.8234
118.8000 32.7469
118.8500 26.6296
118.9000 24.3122
118.9500 24.9474
119.0000 32.3780
119.0500 28.1703
119.1000 29.9354
119.1500 27.3914
119.2000 27.1188
119.2500 24.0213
119.3000 26.5430
119.3500 20.7712
119.4000 37.4792
119.4500 39.2151
119.5000 33.2258
119.5500 19.8031
119.6000 32.3225
119.6500 37.5695
119.7000 23.5823
119.7500 21.7537
119.8000 27.9268
119.8500 26.9832
119.9000 36.6845
119.9500 16.8563
120.0000 32.6819
120.0500 27.1985
120.1000 30.8146
120.1500 30.7747
120.2000 34.4782
120.2500 39.1303
120.3000 25.6662
120.3500 31.1130
120.4000 29.3578
120.4500 16.9658
120.5000 23.0097
120.5500 27.0928
120.6000 36.8135
120.6500 24.6596
120.7000 24.1536
120.7500 23.4820
120.8000 40.6412
120.8500 33.1216
120.9000 30.1935
120.9500 31.5257
121.0000 29.6840
121.0500 31.2862
121.1000 22.5385
121.1500 25.1658
121.2000 22.1158
121.2500 32.0473
121.3000 29.9397
121.3500 29.5874
121.4000 36.8990
121.4500 27.6722
121.5000 26.6143
121.5500 31.9514
121.6000 31.5137
121.6500 33.0762
121.7000 36.5659
121.7500 29.5248
121.8000 40.8909
121.8500 31.5557
121.9000 41.7054
121.9500 36.2427
122.0000 29.7131
122.0500 35.9675
122.1000 30.5372
122.1500 31.9513
122.2000 29.2117
122.2500 27.2467
122.3000 25.8813
122.3500 32.6759
122.4000 24.1485
122.4500 39.8800
122.5000 24.8442
122.5500 39.9631
122.6000 28.7646
122.6500 33.3626
122.7000 30.7080
122.7500 28.9667
122.8000 27.9858
122.8500 25.8236
122.9000 27.8139
122.9500 28.7485
123.0000 28.9709
123.0500 30.1397
123.1000 15.5638
123.1500 33.2007
123.2000 34.3958
123.2500 30.4590
123.3000 40.0016
123.3500 38.8770
123.4000 31.8913
123.4500 32.7575
123.5000 31.7073
123.5500 23.2944
123.6000 30.7151
123.6500 26.5793
123.7000 31.6104
123.7500 21.9736
123.8000 25.2214
123.8500 15.5187
123.9000 27.2481
123.9500 32.5996
124.0000 24.4923
124.0500 33.1470
124.1000 32.5973
124.1500 39.9085
124.2000 30.2626
124.2500 31.4711
124.3000 30.6225
124.3500 27.0823
124.4000 35.1107
124.4500 37.6464
124.5000 29.8496
124.5500 30.8672
124.6000 26.4082
124.6500 27.1267
124.7000 26.4011
124.7500 34.3192
124.8000 30.4589
124.8500 33.5672
124.9000 24.4133
124.9500 29.2228
125.0000 26.4875
125.0500 31.8644
125.1000 30.2864
125.1500 30.7550
125.2000 43.1207
125.2500 33.1864
125.3000 33.3548
125.3500 31.9630
125.4000 29.2443
125.4500 33.7025
125.5000 38.5183
125.5500 31.6872
125.6000 26.0699
125.6500 32.4871
125.7000 34.2031
125.7500 28.3484
125.8000 24.8635
125.8500 34.8189
125.9000 24.7222
125.9500 21.5210
126.0000 31.2332
126.0500 34.8360
126.1000 31.3905
126.1500 37.1614
126.2000 36.1742
126.2500 25.8874
126.3000 22.3675
126.3500 41.9807
126.4000 33.5724
126.4500 33.4390
126.5000 24.8206
126.5500 29.2314
126.6000 35.2919
126.6500 27.0133
126.7000 32.5600
126.7500 36.5329
126.8000 19.5418
126.8500 32.8662
126.9000 28.4793
126.9500 27.2355
127.0000 30.5634
127.0500 36.8179
127.1000 27.9993
127.1500 30.4948
127.2000 28.8196
127.2500 30.3759
127.3000 20.7445
127.3500 39.0494
127.4000 46.3063
127.4500 32.8777
127.5000 25.7011
127.5500 27.0789
127.6000 39.9679
127.6500 27.3803
127.7000 34.5171
127.7500 43.5673
127.8000 39.8068
127.8500 27.5447
127.9000 37.2144
127.9500 23.9951
128.0000 25.7339
128.0500 26.5129
128.1000 34.8037
128.1500 40.2043
128.2000 32.0416
128.2500 23.4857
128.3000 29.9176
128.3500 35.3098
128.4000 35.8883
128.4500 29.5264
128.5000 26.8524
128.5500 35.9626
128.6000 45.7540
128.6500 34.0805
128.7000 26.9381
128.7500 30.0164
128.8000 30.4907
128.8500 24.2321
128.9000 29.6064
128.9500 24.5190
129.0000 26.3173
129.0500 30.8144
129.1000 37.9438
129.1500 24.6224
129.2000 37.4829
129.2500 25.4971
129.3000 28.1415
129.3500 32.3574
129.4000 41.4020
129.4500 32.1841
129.5000 34.2156
129.5500 28.7665
129.6000 34.6570
129.6500 26.8082
129.7000 38.7113
129.7500 29.9506
129.8000 21.7854
129.8500 27.0111
129.9000 38.5864
129.9500 30.0993
130.0000 32.7412
