#Collected Data-269
#Intensity_unit=counts
#Attenuator_coefficient=1.000000
40.0000 21.5913
40.0500 33.4502
40.1000 19.0770
40.1500 30.4815
40.2000 36.2381
40.2500 34.2630
40.3000 31.8380
40.3500 31.7486
40.4000 34.4801
40.4500 38.6901
40.5000 28.2762
40.5500 40.1079
40.6000 37.4951
40.6500 29.4005
40.7000 26.3986
40.7500 18.9324
40.8000 31.2018
40.8500 38.0779
40.9000 28.8509
40.9500 31.9050
41.0000 20.0089
41.0500 28.4888
41.1000 21.9537
41.1500 22.4594
41.2000 30.5882
41.2500 39.3123
41.3000 31.0474
41.3500 41.3524
41.4000 26.6310
41.4500 21.5556
41.5000 43.1101
41.5500 32.9609
41.6000 22.7143
41.6500 23.5737
41.7000 32.4047
41.7500 23.6945
41.8000 27.0377
41.8500 27.9549
41.9000 23.7271
41.9500 34.9827
42.0000 25.8416
42.0500 24.6486
42.1000 19.7794
42.1500 29.4116
42.2000 40.8842
42.2500 34.8602
42.3000 19.1351
42.3500 29.8737
42.4000 36.4969
42.4500 25.2557
42.5000 28.2239
42.5500 18.0337
42.6000 34.7049
42.6500 25.0106
42.7000 25.8622
42.7500 19.3306
42.8000 19.2240
42.8500 37.5566
42.9000 35.8954
42.9500 25.9355
43.0000 22.9108
43.0500 42.1798
43.1000 28.2113
43.1500 29.9346
43.2000 23.5828
43.2500 28.2218
43.3000 25.4587
43.3500 27.5582
43.4000 26.6848
43.4500 33.4650
43.5000 28.6933
43.5500 24.5651
43.6000 29.0218
43.6500 29.0881
43.7000 36.4219
43.7500 34.7509
43.8000 28.5716
43.8500 43.3410
43.9000 38.8208
43.9500 28.7597
44.0000 38.2740
44.0500 44.8277
44.1000 42.4739
44.1500 57.0848
44.2000 57.3814
44.2500 75.4977
44.3000 91.9592
44.3500 126.9506
44.4000 280.5974
44.4500 559.7946
44.5000 1263.2648
44.5500 1649.2955
44.6000 1476.3672
44.6500 855.4981
44.7000 326.1627
44.7500 183.2728
44.8000 111.4365
44.8500 66.2566
44.9000 58.1849
44.9500 40.6977
45.0000 30.9007
45.0500 29.3296
45.1000 23.7751
45.1500 38.1771
45.2000 33.4267
45.2500 47.2950
45.3000 34.3122
45.3500 34.4421
45.4000 32.7880
45.4500 26.1776
45.5000 23.9528
45.5500 33.5817
45.6000 34.1572
45.6500 25.9287
45.7000 33.6395
45.7500 23.4854
45.8000 22.1818
45.8500 29.8148
45.9000 18.3366
45.9500 30.7915
46.0000 31.9899
46.0500 31.3193
46.1000 27.9137
46.1500 21.0647
46.2000 29.3639
46.2500 36.5667
46.3000 32.7626
46.3500 34.1621
46.4000 32.7635
46.4500 16.4147
46.5000 24.2481
46.5500 20.4441
46.6000 26.4617
46.6500 29.6578
46.7000 22.6641
46.7500 23.8287
46.8000 29.8530
46.8500 17.1955
46.9000 22.1833
46.9500 31.4456
47.0000 31.4079
47.0500 23.9220
47.1000 27.2211
47.1500 22.4699
47.2000 21.1916
47.2500 19.4937
47.3000 20.5447
47.3500 29.4707
47.4000 38.7228
47.4500 28.8196
47.5000 15.8680
47.5500 27.1316
47.6000 21.2599
47.6500 20.4914
47.7000 24.6120
47.7500 23.2600
47.8000 22.6542
47.8500 23.5117
47.9000 23.5131
47.9500 21.4459
48.0000 25.7548
48.0500 24.6453
48.1000 30.1172
48.1500 23.1227
48.2000 35.8387
48.2500 20.5364
48.3000 29.8187
48.3500 29.4431
48.4000 30.2542
48.4500 20.6857
48.5000 32.2130
48.5500 32.3857
48.6000 22.4621
48.6500 26.2469
48.7000 25.2290
48.7500 16.4274
48.8000 29.6097
48.8500 29.3766
48.9000 26.7325
48.9500 21.5789
49.0000 31.8843
49.0500 24.8539
49.1000 21.8711
49.1500 29.0654
49.2000 28.1253
49.2500 24.5047
49.3000 22.5353
49.3500 29.2740
49.4000 24.2643
49.4500 23.8572
49.5000 16.6248
49.5500 21.9983
49.6000 31.1290
49.6500 28.3117
49.7000 22.1926
49.7500 22.2183
49.8000 17.0944
49.8500 30.9906
49.9000 39.7333
49.9500 16.4768
50.0000 27.2957
50.0500 21.4458
50.1000 24.0310
50.1500 29.5884
50.2000 29.3836
50.2500 19.8592
50.3000 22.0905
50.3500 20.0270
50.4000 26.6374
50.4500 21.3313
50.5000 24.9579
50.5500 28.9008
50.6000 33.9009
50.6500 23.7123
50.7000 31.2804
50.7500 29.8063
50.8000 25.5437
50.8500 21.8917
50.9000 32.6551
50.9500 27.4677
51.0000 33.4058
51.0500 28.6259
51.1000 23.4619
51.1500 30.0528
51.2000 30.8745
51.2500 20.0412
51.3000 20.4051
51.3500 21.9759
51.4000 27.1342
51.4500 27.4151
51.5000 20.2113
51.5500 30.9955
51.6000 22.6227
51.6500 30.0707
51.7000 21.5133
51.7500 24.5706
51.8000 22.2518
51.8500 31.3617
51.9000 26.9446
51.9500 22.1409
52.0000 15.0501
52.0500 21.7503
52.1000 25.7732
52.1500 19.6316
52.2000 33.4389
52.2500 26.7511
52.3000 19.1839
52.3500 21.5127
52.4000 26.0512
52.4500 27.2533
52.5000 24.0199
52.5500 18.9524
52.6000 26.0719
52.6500 16.1338
52.7000 33.4736
52.7500 19.2513
52.8000 25.5648
52.8500 21.4845
52.9000 27.0396
52.9500 24.7634
53.0000 15.6133
53.0500 32.7388
53.1000 27.2254
53.1500 30.2028
53.2000 26.3213
53.2500 19.8122
53.3000 14.2128
53.3500 23.2681
53.4000 21.7836
53.4500 18.5039
53.5000 30.9194
53.5500 23.4838
53.6000 23.1191
53.6500 23.4896
53.7000 20.7588
53.7500 33.7364
53.8000 26.5044
53.8500 21.5178
53.9000 25.0472
53.9500 22.8083
54.0000 28.3964
54.0500 23.9826
54.1000 21.8561
54.1500 25.5069
54.2000 29.3285
54.2500 22.9636
54.3000 23.5491
54.3500 29.3788
54.4000 27.1833
54.4500 22.4466
54.5000 23.9591
54.5500 14.9231
54.6000 21.9226
54.6500 28.0853
54.7000 23.5348
54.7500 25.5893
54.8000 22.1043
54.8500 18.6178
54.9000 29.4481
54.9500 25.2478
55.0000 31.7683
55.0500 23.1033
55.1000 17.3091
55.1500 27.9227
55.2000 21.4390
55.2500 20.8446
55.3000 28.9530
55.3500 22.7734
55.4000 26.9510
55.4500 15.0058
55.5000 17.4764
55.5500 25.1703
55.6000 30.7823
55.6500 20.3234
55.7000 28.8087
55.7500 22.5012
55.8000 23.6764
55.8500 16.6452
55.9000 26.2809
55.9500 19.5899
56.0000 21.7174
56.0500 26.6639
56.1000 18.9749
56.1500 24.7538
56.2000 26.3045
56.2500 20.6481
56.3000 24.4742
56.3500 20.7203
56.4000 14.8843
56.4500 23.1359
56.5000 22.8555
56.5500 25.3150
56.6000 20.7389
56.6500 34.4185
56.7000 22.6231
56.7500 20.9563
56.8000 16.0585
56.8500 22.3102
56.9000 33.1277
56.9500 29.3107
57.0000 21.9473
57.0500 28.0631
57.1000 13.7374
57.1500 23.3160
57.2000 13.5832
57.2500 19.9250
57.3000 26.7726
57.3500 25.2413
57.4000 23.8377
57.4500 20.4573
57.5000 14.5411
57.5500 25.4880
57.6000 18.7167
57.6500 32.1039
57.7000 29.8465
57.7500 27.9315
57.8000 21.7190
57.8500 22.3224
57.9000 25.0049
57.9500 22.9457
58.0000 21.1949
58.0500 25.7254
58.1000 26.5549
58.1500 26.1104
58.2000 18.9909
58.2500 22.9880
58.3000 25.9647
58.3500 19.6745
58.4000 24.3203
58.4500 24.6739
58.5000 19.7670
58.5500 16.8301
58.6000 25.5419
58.6500 29.2059
58.7000 28.7913
58.7500 27.8389
58.8000 25.5958
58.8500 32.4923
58.9000 21.7951
58.9500 22.1192
59.0000 18.1450
59.0500 22.8712
59.1000 17.6981
59.1500 17.7518
59.2000 22.9642
59.2500 21.5288
59.3000 20.8641
59.3500 11.8080
59.4000 20.2388
59.4500 22.8103
59.5000 23.5827
59.5500 24.3807
59.6000 21.2399
59.6500 23.1602
59.7000 15.3067
59.7500 16.3875
59.8000 22.7659
59.8500 18.5391
59.9000 19.2447
59.9500 20.7012
60.0000 27.0024
60.0500 22.6182
60.1000 22.9198
60.1500 27.5263
60.2000 16.6223
60.2500 24.0828
60.3000 25.2392
60.3500 14.3736
60.4000 22.1634
60.4500 31.4880
60.5000 20.0366
60.5500 24.2482
60.6000 25.7414
60.6500 23.0686
60.7000 25.9410
60.7500 20.2615
60.8000 22.1310
60.8500 24.5682
60.9000 21.0173
60.9500 25.7379
61.0000 20.8704
61.0500 18.7567
61.1000 23.2338
61.1500 17.6097
61.2000 16.0645
61.2500 20.2069
61.3000 17.4373
61.3500 32.7993
61.4000 21.1309
61.4500 18.0374
61.5000 18.4517
61.5500 26.2961
61.6000 24.1354
61.6500 30.9965
61.7000 25.1177
61.7500 19.8570
61.8000 23.2298
61.8500 25.2942
61.9000 14.0907
61.9500 28.0357
62.0000 30.3868
62.0500 18.5027
62.1000 20.1264
62.1500 17.8569
62.2000 26.5708
62.2500 20.0163
62.3000 27.0708
62.3500 24.1935
62.4000 31.6548
62.4500 18.2558
62.5000 24.5632
62.5500 21.5746
62.6000 29.2235
62.6500 32.6015
62.7000 15.3679
62.7500 36.4504
62.8000 21.8398
62.8500 26.7408
62.9000 22.5611
62.9500 20.6963
63.0000 19.5192
63.0500 27.1579
63.1000 32.2154
63.1500 20.3401
63.2000 23.0865
63.2500 29.3661
63.3000 24.4136
63.3500 23.7135
63.4000 19.2090
63.4500 18.9180
63.5000 19.1461
63.5500 23.1819
63.6000 18.3585
63.6500 16.7941
63.7000 28.4239
63.7500 24.9927
63.8000 26.5463
63.8500 34.4436
63.9000 21.3823
63.9500 24.8064
64.0000 23.2173
64.0500 22.7931
64.1000 19.0655
64.1500 25.1165
64.2000 21.0436
64.2500 22.6369
64.3000 23.8681
64.3500 24.4802
64.4000 27.5094
64.4500 22.7701
64.5000 18.0646
64.5500 29.1895
64.6000 42.9201
64.6500 35.6573
64.7000 54.1075
64.7500 85.6569
64.8000 65.4659
64.8500 68.5730
64.9000 57.7057
64.9500 31.4076
65.0000 40.2475
65.0500 36.4916
65.1000 31.4274
65.1500 18.4337
65.2000 21.2090
65.2500 12.4827
65.3000 22.3342
65.3500 27.1029
65.4000 33.3149
65.4500 24.4697
65.5000 21.4292
65.5500 27.7272
65.6000 24.9771
65.6500 20.6348
65.7000 27.9998
65.7500 21.0609
65.8000 16.2983
65.8500 20.2948
65.9000 19.4601
65.9500 31.1351
66.0000 27.0509
66.0500 17.5985
66.1000 19.1774
66.1500 16.4505
66.2000 16.1070
66.2500 36.5480
66.3000 20.8917
66.3500 20.2600
66.4000 28.8563
66.4500 25.4386
66.5000 28.0907
66.5500 23.6798
66.6000 20.0686
66.6500 19.2402
66.7000 26.9833
66.7500 14.8116
66.8000 16.7958
66.8500 30.5501
66.9000 15.7048
66.9500 14.7088
67.0000 15.6665
67.0500 31.6178
67.1000 25.0298
67.1500 30.8169
67.2000 17.7840
67.2500 30.7513
67.3000 14.7955
67.3500 21.9821
67.4000 30.6689
67.4500 28.9814
67.5000 32.4760
67.5500 25.5752
67.6000 16.7528
67.6500 32.4820
67.7000 23.5540
67.7500 18.5836
67.8000 28.1706
67.8500 23.4749
67.9000 24.8609
67.9500 21.9300
68.0000 17.8644
68.0500 27.4944
68.1000 19.6982
68.1500 23.9482
68.2000 27.2905
68.2500 12.0738
68.3000 19.8783
68.3500 18.7746
68.4000 19.6851
68.4500 25.3629
68.5000 20.2100
68.5500 19.4256
68.6000 22.5489
68.6500 13.5947
68.7000 15.5597
68.7500 23.9392
68.8000 23.3304
68.8500 16.1014
68.9000 28.7178
68.9500 24.4140
69.0000 23.1598
69.0500 19.4063
69.1000 18.8064
69.1500 19.2864
69.2000 22.6796
69.2500 28.4090
69.3000 22.3938
69.3500 17.1779
69.4000 21.8645
69.4500 22.8121
69.5000 20.1131
69.5500 23.3081
69.6000 21.0595
69.6500 24.4417
69.7000 24.8937
69.7500 18.9785
69.8000 24.9984
69.8500 20.0296
69.9000 26.6527
69.9500 23.3619
70.0000 27.7253
70.0500 23.6163
70.1000 34.1700
70.1500 27.4401
70.2000 21.2555
70.2500 28.1524
70.3000 24.5623
70.3500 23.7463
70.4000 20.6563
70.4500 24.5995
70.5000 30.5266
70.5500 24.8147
70.6000 23.6726
70.6500 20.2329
70.7000 19.6781
70.7500 26.0321
70.8000 20.2169
70.8500 19.7035
70.9000 28.0538
70.9500 28.3662
71.0000 25.5080
71.0500 18.8911
71.1000 19.2755
71.1500 14.8347
71.2000 19.5710
71.2500 21.2842
71.3000 22.2486
71.3500 16.5087
71.4000 24.6336
71.4500 22.9181
71.5000 23.7910
71.5500 21.5019
71.6000 22.0821
71.6500 22.9269
71.7000 20.8627
71.7500 18.8050
71.8000 25.8866
71.8500 22.0744
71.9000 21.4043
71.9500 17.0986
72.0000 19.7576
72.0500 25.4878
72.1000 15.6764
72.1500 11.4980
72.2000 29.3577
72.2500 19.7629
72.3000 20.8893
72.3500 24.5508
72.4000 25.6189
72.4500 25.4729
72.5000 21.9009
72.5500 19.3872
72.6000 20.7843
72.6500 25.4505
72.7000 17.5781
72.7500 15.5577
72.8000 18.8478
72.8500 23.5544
72.9000 19.5873
72.9500 23.3234
73.0000 20.6373
73.0500 29.0254
73.1000 18.2926
73.1500 32.2946
73.2000 15.5109
73.2500 25.7783
73.3000 23.4179
73.3500 25.7271
73.4000 22.0513
73.4500 27.7870
73.5000 26.1586
73.5500 18.7166
73.6000 33.2818
73.6500 20.3726
73.7000 29.0797
73.7500 26.8647
73.8000 14.5669
73.8500 31.1098
73.9000 21.4812
73.9500 18.9096
74.0000 20.6574
74.0500 15.7887
74.1000 24.3173
74.1500 29.9356
74.2000 22.0726
74.2500 16.2074
74.3000 24.9852
74.3500 22.5239
74.4000 19.5624
74.4500 19.8161
74.5000 29.5579
74.5500 30.0567
74.6000 23.5621
74.6500 19.0784
74.7000 19.9906
74.7500 22.4028
74.8000 29.4337
74.8500 24.1803
74.9000 21.5820
74.9500 23.7295
75.0000 27.0458
75.0500 27.7393
75.1000 23.1994
75.1500 18.1814
75.2000 26.4770
75.2500 23.2739
75.3000 17.5903
75.3500 21.1785
75.4000 20.6072
75.4500 28.9320
75.5000 29.3673
75.5500 25.4242
75.6000 27.6876
75.6500 17.1826
75.7000 20.9177
75.7500 22.1856
75.8000 21.6386
75.8500 24.9634
75.9000 32.0072
75.9500 22.6607
76.0000 29.1539
76.0500 31.0419
76.1000 22.3413
76.1500 24.3904
76.2000 28.6967
76.2500 28.3647
76.3000 15.8065
76.3500 19.5583
76.4000 27.8374
76.4500 21.2240
76.5000 35.7140
76.5500 22.9794
76.6000 23.9160
76.6500 22.4808
76.7000 27.9377
76.7500 16.7887
76.8000 21.8428
76.8500 28.9366
76.9000 22.8824
76.9500 21.3970
77.0000 25.3343
77.0500 19.7201
77.1000 23.4767
77.1500 17.8590
77.2000 14.4456
77.2500 19.8262
77.3000 25.2188
77.3500 26.3464
77.4000 24.7898
77.4500 22.6836
77.5000 18.4514
77.5500 20.6665
77.6000 28.6745
77.6500 21.0216
77.7000 26.9600
77.7500 28.8892
77.8000 16.7510
77.8500 23.4674
77.9000 13.3523
77.9500 17.6066
78.0000 23.5839
78.0500 18.3773
78.1000 29.7767
78.1500 18.1735
78.2000 13.1478
78.2500 20.3225
78.3000 23.2074
78.3500 18.3905
78.4000 16.2428
78.4500 10.3854
78.5000 26.1583
78.5500 23.5746
78.6000 23.6307
78.6500 14.2574
78.7000 13.9186
78.7500 25.1363
78.8000 17.4247
78.8500 16.3332
78.9000 18.8137
78.9500 25.0094
79.0000 26.5219
79.0500 18.1614
79.1000 20.1901
79.1500 26.3072
79.2000 24.4731
79.2500 30.0298
79.3000 27.0482
79.3500 17.2439
79.4000 11.4555
79.4500 31.8681
79.5000 21.3982
79.5500 17.7457
79.6000 17.0083
79.6500 21.3692
79.7000 13.1547
79.7500 27.6341
79.8000 17.8189
79.8500 26.7619
79.9000 17.4288
79.9500 29.7295
80.0000 24.1047
80.0500 23.1622
80.1000 26.8466
80.1500 26.1103
80.2000 13.5552
80.2500 21.3502
80.3000 19.9429
80.3500 10.6685
80.4000 20.6676
80.4500 18.9050
80.5000 15.9734
80.5500 31.8597
80.6000 27.3853
80.6500 26.2274
80.7000 20.1154
80.7500 15.8596
80.8000 21.6893
80.8500 27.6086
80.9000 22.9365
80.9500 22.8072
81.0000 20.1364
81.0500 25.9797
81.1000 29.5231
81.1500 25.8607
81.2000 35.3756
81.2500 36.1371
81.3000 25.2035
81.3500 25.7616
81.4000 26.4171
81.4500 25.5669
81.5000 30.6740
81.5500 23.4621
81.6000 26.5913
81.6500 25.6333
81.7000 31.0628
81.7500 35.3638
81.8000 42.7601
81.8500 52.8286
81.9000 59.4478
81.9500 114.2769
82.0000 151.8299
82.0500 171.3382
82.1000 159.4681
82.1500 119.4087
82.2000 96.0532
82.2500 62.1739
82.3000 41.8291
82.3500 40.2454
82.4000 30.0812
82.4500 26.1624
82.5000 21.3660
82.5500 32.1236
82.6000 27.2558
82.6500 29.3477
82.7000 19.8611
82.7500 18.4095
82.8000 12.4609
82.8500 17.7909
82.9000 17.8628
82.9500 31.2835
83.0000 20.3575
83.0500 20.0701
83.1000 17.9560
83.1500 18.1791
83.2000 22.1828
83.2500 21.2727
83.3000 17.0572
83.3500 18.1858
83.4000 30.8150
83.4500 22.1892
83.5000 30.5558
83.5500 31.2703
83.6000 21.8372
83.6500 19.7458
83.7000 25.4791
83.7500 22.0002
83.8000 21.5364
83.8500 16.1326
83.9000 22.9211
83.9500 21.7603
84.0000 20.2050
84.0500 23.6275
84.1000 28.6003
84.1500 29.3176
84.2000 18.7705
84.2500 22.5812
84.3000 20.0542
84.3500 25.5758
84.4000 19.9987
84.4500 23.5542
84.5000 24.7118
84.5500 18.2532
84.6000 23.5140
84.6500 24.5097
84.7000 25.8942
84.7500 20.3792
84.8000 27.8410
84.8500 24.8883
84.9000 18.3195
84.9500 19.2619
85.0000 22.6551
85.0500 22.1677
85.1000 13.7406
85.1500 30.1027
85.2000 27.8162
85.2500 27.2269
85.3000 29.9763
85.3500 24.0174
85.4000 25.8225
85.4500 21.5126
85.5000 28.0517
85.5500 26.4046
85.6000 27.8961
85.6500 11.0745
85.7000 17.2064
85.7500 31.2125
85.8000 18.4636
85.8500 24.5439
85.9000 23.3135
85.9500 23.3409
86.0000 23.8060
86.0500 25.5889
86.1000 22.2608
86.1500 31.0639
86.2000 24.8607
86.2500 17.6593
86.3000 24.1932
86.3500 16.8489
86.4000 19.0651
86.4500 25.9020
86.5000 26.2741
86.5500 28.3618
86.6000 20.4637
86.6500 29.9978
86.7000 20.4551
86.7500 20.5032
86.8000 25.2526
86.8500 17.6766
86.9000 28.0760
86.9500 20.9564
87.0000 21.3682
87.0500 24.7292
87.1000 10.6727
87.1500 20.9367
87.2000 26.9021
87.2500 17.7446
87.3000 32.7968
87.3500 26.7814
87.4000 21.4199
87.4500 27.6401
87.5000 25.7244
87.5500 8.1884
87.6000 21.9210
87.6500 18.3830
87.7000 25.9637
87.7500 23.8985
87.8000 26.5324
87.8500 20.1248
87.9000 18.6879
87.9500 18.1184
88.0000 24.6152
88.0500 19.9351
88.1000 19.9220
88.1500 36.2223
88.2000 19.6330
88.2500 29.1667
88.3000 18.9547
88.3500 19.2350
88.4000 16.9380
88.4500 15.2402
88.5000 20.4455
88.5500 18.1125
88.6000 28.6187
88.6500 24.6490
88.7000 16.1779
88.7500 17.5594
88.8000 24.6119
88.8500 18.9624
88.9000 19.3400
88.9500 27.6849
89.0000 25.7730
89.0500 16.5569
89.1000 27.9562
89.1500 28.3911
89.2000 24.2939
89.2500 28.4973
89.3000 26.4932
89.3500 12.9244
89.4000 25.2637
89.4500 14.3897
89.5000 14.5199
89.5500 21.2818
89.6000 16.1637
89.6500 15.3557
89.7000 18.5936
89.7500 17.4692
89.8000 18.3198
89.8500 20.0497
89.9000 21.1217
89.9500 24.4982
90.0000 17.1651
90.0500 13.8580
90.1000 23.4373
90.1500 27.8640
90.2000 22.4153
90.2500 24.1362
90.3000 24.1716
90.3500 16.0251
90.4000 14.3506
90.4500 11.2882
90.5000 22.7995
90.5500 23.9755
90.6000 19.9649
90.6500 23.6282
90.7000 24.3720
90.7500 24.4598
90.8000 22.2831
90.8500 22.6837
90.9000 27.1697
90.9500 36.3419
91.0000 20.6164
91.0500 21.9407
91.1000 17.7853
91.1500 19.6306
91.2000 26.6138
91.2500 32.1753
91.3000 24.4858
91.3500 18.9888
91.4000 20.6271
91.4500 16.6507
91.5000 27.5211
91.5500 27.7561
91.6000 22.3070
91.6500 18.1468
91.7000 19.4553
91.7500 22.3534
91.8000 15.5367
91.8500 14.8956
91.9000 19.6260
91.9500 21.5585
92.0000 26.4469
92.0500 20.3346
92.1000 27.7752
92.1500 20.8086
92.2000 23.3554
92.2500 14.5151
92.3000 22.6155
92.3500 22.1552
92.4000 20.3142
92.4500 21.0087
92.5000 16.9342
92.5500 23.7149
92.6000 17.1009
92.6500 29.2305
92.7000 19.4914
92.7500 12.7263
92.8000 20.4056
92.8500 16.2338
92.9000 22.2906
92.9500 27.3995
93.0000 16.7228
93.0500 23.1754
93.1000 20.2134
93.1500 25.3104
93.2000 26.5533
93.2500 23.9459
93.3000 19.7559
93.3500 23.3426
93.4000 27.8006
93.4500 22.2022
93.5000 12.8073
93.5500 12.1657
93.6000 17.5248
93.6500 21.8301
93.7000 33.2413
93.7500 19.1736
93.8000 27.9589
93.8500 26.8435
93.9000 29.1407
93.9500 18.3662
94.0000 19.8153
94.0500 16.9966
94.1000 23.1493
94.1500 24.7841
94.2000 17.2251
94.2500 13.8123
94.3000 15.9643
94.3500 13.7051
94.4000 23.2601
94.4500 17.2174
94.5000 26.0699
94.5500 19.0337
94.6000 14.6517
94.6500 24.1752
94.7000 28.6774
94.7500 27.1859
94.8000 22.7010
94.8500 15.9565
94.9000 20.8500
94.9500 22.1124
95.0000 30.8716
95.0500 14.4764
95.1000 26.5743
95.1500 29.5402
95.2000 20.3276
95.2500 28.6065
95.3000 29.5231
95.3500 28.6639
95.4000 24.0443
95.4500 17.4060
95.5000 14.8237
95.5500 15.8338
95.6000 26.5312
95.6500 18.8241
95.7000 23.2776
95.7500 20.1849
95.8000 27.4690
95.8500 22.3573
95.9000 22.5553
95.9500 24.2557
96.0000 34.5427
96.0500 20.3980
96.1000 15.0648
96.1500 19.2515
96.2000 25.2676
96.2500 31.4072
96.3000 14.5719
96.3500 26.9854
96.4000 15.0566
96.4500 25.0512
96.5000 19.8880
96.5500 15.2835
96.6000 15.3466
96.6500 14.5000
96.7000 21.2316
96.7500 21.8499
96.8000 22.1595
96.8500 19.6156
96.9000 16.6145
96.9500 13.4106
97.0000 22.0258
97.0500 31.3569
97.1000 28.1612
97.1500 15.1088
97.2000 20.1184
97.2500 22.3377
97.3000 27.3663
97.3500 31.7741
97.4000 21.0856
97.4500 18.9453
97.5000 22.5529
97.5500 17.2448
97.6000 22.5050
97.6500 16.4693
97.7000 31.4452
97.7500 27.9558
97.8000 17.3521
97.8500 21.2642
97.9000 18.3197
97.9500 26.3148
98.0000 26.5796
98.0500 23.2683
98.1000 24.9755
98.1500 17.0454
98.2000 26.9661
98.2500 24.9747
98.3000 40.7071
98.3500 42.7497
98.4000 59.7141
98.4500 72.8868
98.5000 104.4047
98.5500 112.5563
98.6000 134.6636
98.6500 127.0876
98.7000 84.2320
98.7500 85.7686
98.8000 43.5962
98.8500 38.8673
98.9000 42.8817
98.9500 29.7857
99.0000 28.0884
99.0500 31.0744
99.1000 28.1968
99.1500 22.7057
99.2000 24.6767
99.2500 24.9873
99.3000 26.5132
99.3500 25.2280
99.4000 19.1801
99.4500 23.9814
99.5000 22.5026
99.5500 29.4637
99.6000 16.9077
99.6500 23.4697
99.7000 21.9512
99.7500 16.3070
99.8000 16.9137
99.8500 22.9400
99.9000 23.8049
99.9500 18.4932
100.0000 20.6877
100.0500 20.7560
100.1000 17.8434
100.1500 23.8050
100.2000 18.1723
100.2500 15.0120
100.3000 24.1052
100.3500 18.3946
100.4000 20.7785
100.4500 22.7665
100.5000 25.3166
100.5500 24.0182
100.6000 26.8074
100.6500 18.8577
100.7000 29.2228
100.7500 23.1560
100.8000 26.1262
100.8500 22.0075
100.9000 21.6536
100.9500 23.0645
101.0000 25.2676
101.0500 24.0026
101.1000 26.1269
101.1500 23.8059
101.2000 25.0578
101.2500 26.5801
101.3000 21.9607
101.3500 21.8590
101.4000 15.2355
101.4500 13.4647
101.5000 25.6231
101.5500 23.7445
101.6000 20.7035
101.6500 28.6419
101.7000 22.2793
101.7500 18.8599
101.8000 14.3505
101.8500 18.1790
101.9000 26.4545
101.9500 24.6568
102.0000 22.9653
102.0500 19.3815
102.1000 23.0833
102.1500 24.3522
102.2000 19.6955
102.2500 18.5998
102.3000 23.0502
102.3500 20.9872
102.4000 17.7763
102.4500 22.2599
102.5000 20.7804
102.5500 17.1361
102.6000 21.4514
102.6500 18.5247
102.7000 23.7824
102.7500 17.2365
102.8000 19.3156
102.8500 15.6495
102.9000 24.3221
102.9500 25.1274
103.0000 22.4861
103.0500 31.6179
103.1000 21.2883
103.1500 14.5433
103.2000 11.7281
103.2500 23.3702
103.3000 19.5522
103.3500 17.3831
103.4000 19.5667
103.4500 22.4670
103.5000 19.7580
103.5500 27.4451
103.6000 19.8536
103.6500 19.7434
103.7000 19.4631
103.7500 14.2398
103.8000 21.8394
103.8500 20.0634
103.9000 23.3280
103.9500 26.4718
104.0000 16.1600
104.0500 25.6525
104.1000 19.0935
104.1500 15.4942
104.2000 25.1867
104.2500 14.8493
104.3000 17.0778
104.3500 16.2066
104.4000 19.6140
104.4500 18.7189
104.5000 20.3934
104.5500 18.4340
104.6000 26.3792
104.6500 15.9023
104.7000 15.8484
104.7500 20.8295
104.8000 19.9628
104.8500 23.6331
104.9000 20.9568
104.9500 19.3240
105.0000 22.5492
105.0500 14.9593
105.1000 15.0723
105.1500 25.3921
105.2000 30.2095
105.2500 22.7856
105.3000 17.9959
105.3500 19.7157
105.4000 19.4911
105.4500 25.2713
105.5000 19.2464
105.5500 27.0103
105.6000 21.7320
105.6500 35.6627
105.7000 21.1987
105.7500 25.4524
105.8000 19.9534
105.8500 19.3664
105.9000 26.2258
105.9500 18.4713
106.0000 27.3172
106.0500 14.1682
106.1000 17.6705
106.1500 15.8403
106.2000 26.5695
106.2500 26.9362
106.3000 27.1486
106.3500 24.5009
106.4000 24.4137
106.4500 17.1657
106.5000 25.9383
106.5500 14.8092
106.6000 22.3223
106.6500 18.5946
106.7000 17.3128
106.7500 19.9519
106.8000 10.6335
106.8500 16.1284
106.9000 20.2521
106.9500 21.3591
107.0000 28.0940
107.0500 22.6450
107.1000 17.0504
107.1500 24.1754
107.2000 23.8976
107.2500 19.5360
107.3000 24.5898
107.3500 22.5879
107.4000 23.3183
107.4500 19.8321
107.5000 17.9191
107.5500 23.8337
107.6000 20.0049
107.6500 27.9374
107.7000 27.4183
107.7500 18.8731
107.8000 21.3104
107.8500 20.7212
107.9000 17.7504
107.9500 25.8357
108.0000 24.2126
108.0500 25.4821
108.1000 16.7887
108.1500 20.7639
108.2000 20.4627
108.2500 21.5101
108.3000 22.2953
108.3500 14.9559
108.4000 28.6126
108.4500 10.6300
108.5000 21.9796
108.5500 15.6895
108.6000 18.5176
108.6500 18.2745
108.7000 18.1550
108.7500 23.1783
108.8000 26.5129
108.8500 18.2154
108.9000 20.0740
108.9500 20.0685
109.0000 18.4917
109.0500 21.0598
109.1000 22.9894
109.1500 26.6220
109.2000 23.1006
109.2500 14.3439
109.3000 31.4897
109.3500 19.6699
109.4000 19.0289
109.4500 24.4938
109.5000 27.4473
109.5500 22.4951
109.6000 19.9759
109.6500 24.2570
109.7000 33.7730
109.7500 22.7701
109.8000 13.2886
109.8500 20.4054
109.9000 22.4693
109.9500 20.9504
110.0000 24.3750
110.0500 21.1699
110.1000 17.7793
110.1500 28.5665
110.2000 26.8111
110.2500 19.2936
110.3000 22.4743
110.3500 14.3539
110.4000 23.5604
110.4500 28.8282
110.5000 21.6478
110.5500 22.8216
110.6000 25.7091
110.6500 24.5838
110.7000 24.5301
110.7500 26.7888
110.8000 23.2515
110.8500 25.9152
110.9000 25.8964
110.9500 15.1373
111.0000 19.7283
111.0500 19.4788
111.1000 26.4661
111.1500 22.9005
111.2000 18.4289
111.2500 29.0972
111.3000 20.7824
111.3500 21.4618
111.4000 24.4921
111.4500 24.9504
111.5000 18.2566
111.5500 22.4335
111.6000 16.9006
111.6500 22.9255
111.7000 18.5482
111.7500 15.9131
111.8000 16.5839
111.8500 20.6088
111.9000 22.5942
111.9500 22.1516
112.0000 25.1464
112.0500 21.7742
112.1000 22.4617
112.1500 24.9563
112.2000 22.7064
112.2500 26.1159
112.3000 21.3807
112.3500 13.3956
112.4000 19.5291
112.4500 22.2613
112.5000 19.2096
112.5500 19.0357
112.6000 15.5710
112.6500 14.5342
112.7000 23.4380
112.7500 23.3085
112.8000 22.6189
112.8500 11.6372
112.9000 22.3665
112.9500 24.5044
113.0000 21.3867
113.0500 19.5682
113.1000 23.9120
113.1500 9.7507
113.2000 25.4465
113.2500 18.9712
113.3000 18.7415
113.3500 13.4409
113.4000 20.6354
113.4500 29.2111
113.5000 12.3554
113.5500 24.8104
113.6000 17.2130
113.6500 29.7826
113.7000 15.7881
113.7500 22.7341
113.8000 26.4149
113.8500 14.9505
113.9000 23.9957
113.9500 19.2616
114.0000 26.2387
114.0500 26.8687
114.1000 27.5765
114.1500 26.4115
114.2000 20.9020
114.2500 17.7162
114.3000 19.4611
114.3500 20.9485
114.4000 22.8903
114.4500 22.5494
114.5000 20.6323
114.5500 25.1098
114.6000 18.5207
114.6500 25.7490
114.7000 17.7656
114.7500 23.7367
114.8000 27.5227
114.8500 28.5956
114.9000 24.0396
114.9500 26.7026
115.0000 23.7870
115.0500 22.0485
115.1000 29.4551
115.1500 22.3328
115.2000 23.2948
115.2500 22.2035
115.3000 22.4682
115.3500 28.8190
115.4000 26.9940
115.4500 46.1630
115.5000 35.9383
115.5500 39.2800
115.6000 47.9469
115.6500 49.7619
115.7000 43.2139
115.7500 56.6050
115.8000 63.9343
115.8500 54.1992
115.9000 61.4009
115.9500 68.6113
116.0000 45.1496
116.0500 35.4511
116.1000 44.6999
116.1500 34.4730
116.2000 33.7326
116.2500 30.5137
116.3000 38.0747
116.3500 26.8104
116.4000 23.3556
116.4500 24.6908
116.5000 17.0951
116.5500 17.3395
116.6000 25.7605
116.6500 22.9668
116.7000 22.6945
116.7500 26.6828
116.8000 15.4899
116.8500 21.9135
116.9000 22.6310
116.9500 34.4728
117.0000 26.9295
117.0500 13.8605
117.1000 20.6492
117.1500 20.0759
117.2000 27.2798
117.2500 27.4860
117.3000 31.3108
117.3500 20.4860
117.4000 30.1826
117.4500 20.1010
117.5000 27.9827
117.5500 14.0491
117.6000 19.7691
117.6500 17.2759
117.7000 18.5771
117.7500 17.9444
117.8000 9.5187
117.8500 33.0657
117.9000 22.5562
117.9500 22.2338
118.0000 27.9361
118.0500 19.6307
118.1000 17.2611
118.1500 23.8340
118.2000 24.8570
118.2500 18.2158
118.3000 13.6798
118.3500 20.5634
118.4000 15.9182
118.4500 16.1000
118.5000 19.4068
118.5500 22.3925
118.6000 32.0811
118.6500 25.0654
118.7000 23.4802
118.7500 21.3236
118.8000 20.7821
118.8500 17.5223
118.9000 23.1991
118.9500 23.0231
119.0000 19.2467
119.0500 19.1146
119.1000 20.9354
119.1500 24.5512
119.2000 23.3702
119.2500 32.1400
119.3000 24.4232
119.3500 15.0872
119.4000 19.2227
119.4500 17.5813
119.5000 18.3496
119.5500 22.4210
119.6000 16.5514
119.6500 19.7045
119.7000 23.3463
119.7500 18.6950
119.8000 19.9554
119.8500 18.9312
119.9000 18.7707
119.9500 22.3876
120.0000 21.5202
120.0500 22.4178
120.1000 19.4642
120.1500 17.0126
120.2000 20.6141
120.2500 18.8439
120.3000 22.8230
120.3500 24.0347
120.4000 23.6560
120.4500 22.1285
120.5000 18.3690
120.5500 14.5095
120.6000 19.3935
120.6500 26.6403
120.7000 16.2709
120.7500 23.7272
120.8000 13.2972
120.8500 23.6153
120.9000 25.5847
120.9500 31.3161
121.0000 16.0826
121.0500 22.4400
121.1000 16.8751
121.1500 32.8089
121.2000 22.1067
121.2500 20.9843
121.3000 16.8129
121.3500 24.7768
121.4000 29.3160
121.4500 14.4119
121.5000 22.7529
121.5500 16.8542
121.6000 19.8271
121.6500 18.9855
121.7000 20.6367
121.7500 23.8354
121.8000 19.9378
121.8500 17.8610
121.9000 16.2834
121.9500 27.0996
122.0000 20.6438
122.0500 21.3061
122.1000 20.5154
122.1500 22.6486
122.2000 19.3782
122.2500 23.7061
122.3000 24.3151
122.3500 25.4949
122.4000 28.4492
122.4500 24.4934
122.5000 15.0091
122.5500 19.4812
122.6000 21.1889
122.6500 26.2011
122.7000 17.6607
122.7500 16.4218
122.8000 14.5528
122.8500 19.3625
122.9000 16.4094
122.9500 21.8721
123.0000 20.6984
123.0500 27.5328
123.1000 20.2812
123.1500 22.5021
123.2000 19.5984
123.2500 17.2618
123.3000 20.1819
123.3500 18.1367
123.4000 20.8047
123.4500 18.9212
123.5000 13.8594
123.5500 24.8516
123.6000 29.9218
123.6500 17.7482
123.7000 23.4998
123.7500 19.1846
123.8000 17.3376
123.8500 20.7407
123.9000 28.0471
123.9500 25.8404
124.0000 20.9500
124.0500 25.9105
124.1000 28.3714
124.1500 26.7830
124.2000 16.3402
124.2500 17.4959
124.3000 25.6884
124.3500 22.9492
124.4000 22.6481
124.4500 19.8923
124.5000 21.6337
124.5500 19.1788
124.6000 20.5525
124.6500 24.5214
124.7000 21.0031
124.7500 17.0348
124.8000 24.9413
124.8500 20.4191
124.9000 27.1231
124.9500 18.6727
125.0000 19.7015
125.0500 20.7633
125.1000 14.4329
125.1500 10.9017
125.2000 23.5162
125.2500 25.2774
125.3000 26.2495
125.3500 21.5724
125.4000 17.7020
125.4500 21.9935
125.5000 15.2519
125.5500 24.3605
125.6000 23.3871
125.6500 16.8232
125.7000 17.2878
125.7500 18.9244
125.8000 22.2068
125.8500 17.3165
125.9000 21.7780
125.9500 21.9456
126.0000 28.6414
126.0500 25.4001
126.1000 14.8446
126.1500 13.8175
126.2000 23.3813
126.2500 21.7848
126.3000 22.3184
126.3500 17.5350
126.4000 22.9594
126.4500 25.0775
126.5000 23.6929
126.5500 23.0169
126.6000 21.7205
126.6500 23.7254
126.7000 19.4873
126.7500 20.3866
126.8000 36.0651
126.8500 26.9738
126.9000 22.9475
126.9500 24.6673
127.0000 25.6505
127.0500 17.7594
127.1000 17.2023
127.1500 12.4086
127.2000 16.1966
127.2500 15.3400
127.3000 25.7705
127.3500 20.7734
127.4000 17.4721
127.4500 24.1780
127.5000 24.8414
127.5500 16.3450
127.6000 30.2200
127.6500 16.5461
127.7000 12.3164
127.7500 11.3627
127.8000 26.0715
127.8500 24.9494
127.9000 11.9328
127.9500 12.9622
128.0000 21.4886
128.0500 21.2645
128.1000 27.7529
128.1500 23.9239
128.2000 24.0662
128.2500 16.2500
128.3000 21.5024
128.3500 18.4181
128.4000 16.8526
128.4500 24.7047
128.5000 17.4604
128.5500 16.3576
128.6000 20.4124
128.6500 23.3858
128.7000 24.1428
128.7500 25.0198
128.8000 15.3415
128.8500 16.2059
128.9000 18.6032
128.9500 19.5860
129.0000 17.2192
129.0500 30.8190
129.1000 25.1982
129.1500 29.2531
129.2000 18.6313
129.2500 22.9807
129.3000 18.2753
129.3500 32.5380
129.4000 32.8715
129.4500 22.5617
129.5000 21.0003
129.5500 20.7435
129.6000 27.5263
129.6500 24.4067
129.7000 22.0082
129.7500 17.2910
129.8000 22.7637
129.8500 26.5484
129.9000 29.3264
129.9500 30.4921
130.0000 13.5590
